mx,my,mz,temp
205.466675,426.399994,74.400002,29.34375
201.200012,430.0,73.466667,29.34375
204.533325,425.066681,74.0,29.34375
200.0,429.866669,73.066666,29.34375
203.600006,427.599976,75.066666,29.34375
200.266663,431.733337,74.800003,29.34375
208.133331,426.266663,72.266663,29.34375
201.066666,431.733337,77.333328,29.34375
204.133331,425.733337,74.0,29.34375
202.666656,430.266693,75.333336,29.34375
202.399994,426.533325,74.666664,29.34375
203.066681,432.0,75.199997,29.34375
202.399994,428.93335,72.800003,29.34375
205.733337,427.733337,76.266663,29.34375
204.933334,426.666687,72.533333,29.34375
202.0,429.733307,77.466667,29.34375
201.333328,430.533325,74.800003,29.34375
205.200012,424.399994,74.26667,29.34375
202.666656,430.133331,73.066666,29.34375
203.066681,426.666687,76.799995,29.34375
205.066666,434.0,77.600006,29.339844
202.399994,425.200012,73.066666,29.34375
205.866669,431.333344,76.799995,29.34375
201.200012,425.466644,73.599998,29.34375
208.933334,429.466675,78.800003,29.34375
198.533325,427.333344,72.266663,29.34375
206.666656,427.866669,76.666664,29.34375
202.933334,430.93335,72.399994,29.339844
204.933334,424.266663,74.133331,29.34375
202.399994,435.066681,76.0,29.34375
204.400009,422.799988,73.866669,29.339844
203.066681,434.399994,75.333336,29.34375
206.933319,425.600006,70.0,29.34375
205.599991,430.266693,81.599998,29.34375
202.266678,424.799988,69.066666,29.339844
206.53334,432.400024,79.333336,29.339844
204.533325,428.533325,70.533333,29.339844
203.866669,428.800018,75.866669,29.339844
202.133331,430.800018,72.266663,29.339844
206.0,424.799988,74.666664,29.339844
205.866669,431.199982,74.133331,29.34375
201.466675,425.466644,77.733337,29.34375
203.333344,431.866699,69.199997,29.339844
205.599991,424.799988,72.933334,29.339844
205.866669,431.866699,76.666664,29.34375
202.0,426.133362,72.933334,29.339844
204.533325,430.400024,75.73333,29.339844
201.600006,426.0,74.800003,29.339844
205.866669,430.666656,78.533333,29.339844
201.066666,424.399994,72.0,29.34375
207.066666,430.666656,78.0,29.339844
199.733337,426.533325,74.533333,29.339844
206.399994,428.266663,79.733337,29.339844
201.333328,427.200012,69.066666,29.339844
206.53334,427.200012,77.066666,29.339844
199.733337,430.666656,70.0,29.339844
205.066666,425.600006,75.466667,29.339844
202.266678,433.333313,73.066666,29.339844
204.933334,424.133331,76.133331,29.339844
201.466675,432.0,72.133331,29.339844
202.399994,424.0,76.266663,29.339844
202.933334,433.066681,74.800003,29.339844
204.799988,425.200012,73.066666,29.339844
201.733337,433.733337,77.066666,29.335938
202.800003,428.800018,71.199997,29.339844
204.0,428.0,78.533333,29.335938
204.0,427.599976,70.133331,29.339844
203.866669,429.06665,78.800003,29.339844
203.866669,434.0,72.800003,29.339844
199.599991,424.933319,78.133331,29.335938
206.133331,432.400024,69.466667,29.339844
204.0,423.866638,76.266663,29.339844
208.933334,430.666656,78.26667,29.335938
202.53334,427.866669,72.133331,29.339844
205.200012,429.466675,77.466667,29.339844
203.066681,427.06665,72.399994,29.339844
205.866669,427.333344,78.400002,29.339844
201.200012,430.400024,70.0,29.339844
206.266663,426.533325,74.666664,29.335938
204.400009,430.0,70.666664,29.339844
205.599991,422.93335,75.066666,29.335938
200.800003,433.333313,72.266663,29.335938
205.733337,422.400024,75.466667,29.335938
203.866669,434.399994,73.200005,29.339844
204.666672,424.799988,73.200005,29.339844
201.866669,434.133331,76.799995,29.339844
205.066666,422.93335,73.599998,29.335938
200.800003,434.0,77.466667,29.335938
207.333344,426.399994,70.133331,29.335938
201.733337,430.800018,82.0,29.339844
203.46666,424.399994,69.599998,29.335938
204.0,432.266663,80.400002,29.339844
201.733337,430.93335,70.266663,29.335938
203.733337,426.266663,78.666672,29.339844
203.46666,429.333344,70.400002,29.339844
204.266663,427.733337,79.199997,29.335938
206.399994,434.133331,73.200005,29.335938
200.133347,423.733337,76.933334,29.339844
206.399994,432.533325,68.666672,29.335938
203.066681,425.466644,76.799995,29.339844
204.533325,433.733337,78.400002,29.335938
202.399994,422.0,71.73333,29.335938
206.133331,433.466675,76.133331,29.339844
201.733337,424.0,72.800003,29.339844
204.533325,429.466675,80.533333,29.335938
198.533325,426.799988,68.133331,29.335938
208.533325,430.666656,76.666664,29.339844
198.133331,427.599976,72.399994,29.335938
206.266663,425.600006,78.133331,29.335938
201.600006,431.600006,72.0,29.335938
205.733337,423.600006,77.199997,29.335938
199.199997,431.866699,69.866669,29.335938
203.333344,424.266663,74.933334,29.335938
203.600006,432.533325,74.666664,29.335938
205.599991,423.066681,74.26667,29.335938
198.533325,434.0,76.133331,29.335938
203.333344,425.733337,72.266663,29.335938
204.533325,429.733307,77.600006,29.335938
202.133331,426.0,70.533333,29.335938
202.399994,432.133331,79.066666,29.335938
203.600006,431.866699,74.26667,29.335938
203.600006,424.799988,76.0,29.335938
202.53334,432.799988,73.866669,29.335938
207.600006,423.333313,71.466667,29.335938
205.599991,431.333344,76.933334,29.335938
203.866669,427.06665,69.866669,29.335938
203.199997,430.0,80.266663,29.335938
203.866669,425.866669,68.133331,29.335938
205.066666,423.066681,77.733337,29.335938
203.866669,433.200012,70.266663,29.335938
203.066681,424.399994,79.866669,29.332031
201.600006,431.600006,68.0,29.335938
201.733337,422.266663,71.866669,29.335938
205.599991,434.666687,74.400002,29.335938
201.466675,422.400024,77.066666,29.335938
202.133331,434.399994,71.333328,29.335938
205.733337,421.733337,73.066666,29.332031
200.0,434.266663,73.466667,29.335938
201.200012,422.133331,69.866669,29.335938
202.933334,434.533356,76.666664,29.332031
204.533325,424.933319,68.26667,29.335938
199.733337,432.0,82.399994,29.335938
206.53334,422.266663,68.533333,29.332031
203.199997,434.0,80.933334,29.335938
203.199997,428.399994,68.933334,29.332031
205.333328,430.266693,81.333328,29.332031
204.0,426.666687,69.199997,29.332031
202.53334,431.866699,80.800003,29.332031
199.599991,434.0,69.333336,29.332031
203.733337,424.133331,80.933334,29.332031
202.666656,430.133331,66.933334,29.332031
202.933334,427.466675,84.933327,29.332031
202.933334,434.533356,73.866669,29.332031
204.266663,420.93335,76.133331,29.332031
202.266678,434.399994,70.933334,29.332031
203.199997,421.866699,80.400002,29.332031
203.199997,435.466644,78.400002,29.332031
202.399994,421.600006,70.133331,29.328125
202.53334,435.466644,76.533333,29.332031
204.0,420.533325,74.0,29.332031
201.333328,432.93335,81.73333,29.332031
204.799988,423.866638,63.866669,29.328125
201.600006,434.399994,78.26667,29.332031
205.200012,419.866669,71.866669,29.332031
207.199997,429.466675,81.73333,29.332031
203.600006,427.733337,66.266663,29.332031
204.666672,432.266663,83.066666,29.332031
202.933334,426.799988,65.066666,29.332031
202.133331,422.93335,82.533333,29.332031
203.199997,432.0,65.599998,29.328125
202.133331,425.466644,84.399994,29.328125
203.866669,431.600006,64.133331,29.332031
204.133331,420.533325,76.0,29.328125
204.0,433.733337,72.666672,29.332031
202.800003,422.266663,77.466667,29.328125
204.0,432.266663,72.0,29.328125
201.866669,422.133331,67.600006,29.328125
208.133331,429.599976,79.599998,29.328125
203.199997,428.800018,68.933334,29.328125
203.46666,429.466675,83.46666,29.328125
200.133347,433.200012,67.333328,29.328125
208.133331,424.133331,82.0,29.332031
202.0,434.399994,68.800003,29.328125
205.466675,423.200012,81.866669,29.328125
200.666672,434.399994,72.399994,29.328125
206.666656,420.133331,75.73333,29.328125
202.266678,435.200012,74.0,29.328125
204.0,421.733337,74.933334,29.324219
200.266663,432.533325,81.066666,29.324219
206.399994,421.866699,69.466667,29.328125
202.666656,434.933319,77.866669,29.324219
204.533325,420.93335,69.866669,29.324219
204.533325,430.133331,79.333336,29.324219
203.333344,424.533356,70.533333,29.324219
204.533325,432.133331,78.26667,29.324219
204.666672,423.066681,71.866669,29.324219
210.0,429.06665,80.0,29.324219
201.066666,429.199982,68.26667,29.324219
201.600006,429.06665,85.333336,29.324219
202.933334,428.93335,65.866669,29.324219
205.866669,421.600006,79.733337,29.324219
199.866653,434.666687,69.466667,29.324219
205.866669,424.533356,82.266663,29.324219
202.933334,433.600006,67.466667,29.320312
204.533325,420.266693,72.800003,29.324219
201.066666,433.733337,76.400002,29.324219
205.866669,421.199982,76.400002,29.320312
200.666672,433.066681,72.0,29.324219
205.733337,422.533325,71.866669,29.320312
201.866669,434.799988,76.799995,29.320312
204.666672,421.06665,70.133331,29.320312
201.600006,434.666687,76.133331,29.320312
203.199997,424.933319,66.400002,29.324219
203.733337,431.199982,81.866669,29.320312
204.266663,426.666687,62.666668,29.320312
206.800003,431.06665,84.666664,29.320312
205.333328,432.533325,64.26667,29.320312
203.066681,427.599976,84.0,29.320312
201.200012,428.93335,65.599998,29.320312
204.0,429.599976,84.133331,29.320312
201.600006,434.266663,68.800003,29.320312
206.399994,423.866638,82.666664,29.320312
202.133331,432.799988,67.066666,29.316406
202.0,425.600006,84.266663,29.316406
200.800003,433.866638,75.199997,29.316406
199.333328,422.799988,74.666664,29.320312
202.800003,433.066681,73.466667,29.320312
202.933334,423.066681,75.599998,29.320312
202.933334,432.0,82.399994,29.316406
200.93335,427.866669,66.400002,29.316406
206.399994,430.400024,81.066666,29.316406
201.200012,427.866669,67.199997,29.320312
209.333328,426.133362,82.399994,29.316406
198.266663,432.133331,70.666664,29.316406
208.533325,426.399994,81.333328,29.316406
200.400009,432.799988,67.199997,29.316406
205.866669,424.0,77.066666,29.316406
200.533325,433.466675,72.266663,29.316406
207.333344,421.600006,76.666664,29.316406
202.266678,434.933319,75.199997,29.316406
204.133331,426.666687,66.933334,29.316406
202.133331,431.199982,84.533325,29.316406
203.199997,426.666687,63.866669,29.316406
207.333344,430.266693,82.666664,29.316406
202.666656,430.133331,66.400002,29.316406
204.799988,428.399994,83.333328,29.316406
201.333328,428.666656,65.866669,29.3125
203.46666,429.733307,84.0,29.3125
202.933334,433.600006,68.933334,29.3125
204.666672,424.266663,80.133331,29.3125
203.066681,432.400024,66.133331,29.3125
204.133331,425.200012,84.799995,29.3125
205.733337,433.466675,73.599998,29.3125
202.266678,423.600006,74.133331,29.3125
203.199997,432.133331,72.133331,29.3125
203.066681,424.799988,76.400002,29.3125
204.400009,433.200012,79.466667,29.3125
202.666656,424.266663,68.800003,29.3125
204.533325,432.666656,76.799995,29.3125
199.466675,424.799988,73.066666,29.308594
203.733337,429.866669,84.666664,29.3125
201.200012,427.866669,64.26667,29.308594
206.666656,430.666656,82.266663,29.308594
200.666672,426.266663,67.333328,29.308594
204.533325,427.866669,83.066666,29.308594
200.0,429.866669,67.199997,29.308594
206.933319,426.933319,82.533333,29.308594
200.0,431.866699,68.0,29.308594
204.0,424.533356,80.0,29.308594
202.0,431.199982,68.0,29.304688
207.46666,424.666687,80.133331,29.308594
199.599991,432.133331,70.800003,29.308594
202.266678,425.733337,72.399994,29.308594
204.266663,428.93335,75.199997,29.304688
202.800003,425.466644,75.333336,29.308594
201.733337,429.866669,71.73333,29.304688
203.333344,427.599976,68.533333,29.308594
207.199997,428.666656,77.333328,29.304688
202.800003,427.866669,70.533333,29.308594
202.666656,428.800018,79.599998,29.304688
199.733337,430.800018,68.0,29.304688
206.666656,424.533356,79.866669,29.304688
202.399994,432.266663,69.199997,29.304688
205.200012,425.333313,80.266663,29.304688
202.266678,433.733337,74.533333,29.304688
204.400009,423.600006,75.333336,29.304688
200.800003,431.600006,74.533333,29.308594
204.0,424.399994,75.866669,29.304688
200.93335,430.533325,81.199997,29.304688
202.399994,425.066681,69.599998,29.304688
204.133331,431.466675,78.933334,29.304688
201.466675,425.200012,70.666664,29.304688
206.266663,424.399994,76.400002,29.300781
200.93335,431.866699,71.73333,29.300781
206.933319,423.866638,77.466667,29.300781
200.266663,430.93335,69.199997,29.300781
206.266663,425.733337,77.199997,29.300781
199.199997,430.400024,70.133331,29.300781
206.933319,426.933319,77.600006,29.300781
201.600006,432.0,72.0,29.300781
203.333344,428.0,73.066666,29.300781
202.666656,428.800018,76.533333,29.300781
204.933334,427.06665,71.199997,29.300781
202.0,430.800018,78.0,29.300781
206.399994,430.0,68.533333,29.300781
201.866669,427.200012,78.533333,29.296875
207.066666,428.93335,66.533333,29.296875
201.733337,427.733337,83.066666,29.296875
202.399994,431.733337,70.400002,29.296875
205.066666,425.600006,77.066666,29.296875
202.933334,430.533325,69.866669,29.296875
202.266678,426.666687,79.466667,29.300781
202.266678,432.400024,74.0,29.296875
203.866669,425.600006,74.0,29.296875
204.799988,430.266693,72.666672,29.296875
201.600006,426.133362,76.533333,29.296875
201.600006,430.800018,75.599998,29.296875
204.400009,426.0,73.466667,29.296875
203.46666,430.800018,76.0,29.296875
203.066681,427.06665,73.466667,29.296875
204.0,429.199982,79.466667,29.296875
202.133331,427.200012,69.199997,29.292969
203.866669,428.93335,78.800003,29.296875
205.599991,430.93335,71.466667,29.296875
205.599991,427.333344,69.066666,29.296875
202.399994,430.400024,77.199997,29.296875
204.400009,426.533325,72.800003,29.296875
203.333344,430.666656,76.133331,29.296875
204.533325,427.866669,70.933334,29.296875
202.399994,429.333344,78.533333,29.292969
202.399994,426.266663,70.533333,29.292969
203.600006,429.333344,78.0,29.292969
206.133331,429.06665,68.666672,29.292969
200.533325,427.06665,80.400002,29.292969
205.733337,427.866669,67.066666,29.292969
205.066666,428.133301,77.866669,29.292969
200.400009,427.200012,73.466667,29.292969
205.599991,430.400024,75.466667,29.292969
202.266678,428.399994,75.466667,29.292969
206.0,428.266663,74.933334,29.292969
204.533325,426.266663,75.599998,29.289062
205.866669,429.866669,73.333336,29.289062
200.666672,426.933319,75.333336,29.292969
205.333328,429.599976,74.800003,29.292969
205.599991,426.666687,76.0,29.292969
202.933334,429.333344,72.399994,29.292969
204.799988,426.0,75.73333,29.289062
204.266663,429.333344,72.666672,29.289062
205.599991,427.200012,75.199997,29.292969
203.199997,430.400024,74.26667,29.289062
202.0,427.333344,75.199997,29.289062
206.933319,428.93335,70.933334,29.292969
206.133331,429.06665,71.866669,29.289062
202.933334,429.866669,76.666664,29.289062
203.066681,428.533325,74.133331,29.289062
203.46666,429.599976,74.933334,29.289062
205.200012,428.266663,73.866669,29.289062
202.0,427.866669,75.73333,29.289062
205.599991,427.333344,73.466667,29.285156
200.533325,427.599976,78.26667,29.289062
205.333328,428.666656,75.866669,29.289062
200.400009,427.200012,74.666664,29.289062
205.466675,428.133301,73.866669,29.289062
200.0,427.06665,75.333336,29.285156
203.199997,426.133362,72.933334,29.289062
204.666672,431.733337,76.533333,29.289062
201.333328,427.866669,74.800003,29.285156
205.733337,430.400024,75.333336,29.289062
203.600006,426.266663,70.800003,29.289062
205.866669,430.266693,77.199997,29.285156
200.533325,426.799988,75.466667,29.285156
206.399994,430.133331,75.466667,29.285156
204.933334,425.733337,73.200005,29.285156
204.400009,430.133331,74.533333,29.285156
203.46666,425.866669,72.933334,29.285156
205.733337,429.866669,74.933334,29.285156
204.266663,427.599976,73.466667,29.285156
202.0,428.133301,76.799995,29.285156
203.866669,426.666687,70.0,29.285156
200.666672,428.133301,78.0,29.285156
204.266663,431.199982,74.26667,29.285156
201.733337,427.599976,73.599998,29.285156
204.266663,426.799988,73.866669,29.285156
201.200012,428.93335,75.066666,29.285156
207.733322,432.400024,76.133331,29.28125
201.333328,427.599976,73.733337,29.285156
206.53334,430.93335,73.333336,29.285156
204.133331,426.933319,75.466667,29.285156
208.266663,429.199982,73.333336,29.285156
202.666656,428.399994,73.066666,29.28125
204.133331,427.466675,75.73333,29.285156
201.733337,428.266663,73.333336,29.285156
205.066666,429.599976,76.799995,29.28125
202.933334,426.799988,72.800003,29.28125
205.599991,427.466675,76.0,29.28125
198.399994,427.200012,76.0,29.28125
204.799988,427.06665,76.133331,29.28125
199.866653,429.333344,70.400002,29.28125
204.933334,427.333344,75.333336,29.28125
202.266678,430.266693,72.666672,29.28125
202.53334,424.533356,74.800003,29.28125
203.199997,430.800018,73.866669,29.28125
204.533325,426.0,73.866669,29.28125
202.933334,433.733337,76.133331,29.28125
205.333328,427.200012,72.933334,29.28125
202.666656,430.0,77.866669,29.28125
207.066666,426.266663,69.866669,29.277344
203.733337,431.600006,78.666672,29.28125
203.866669,430.533325,71.466667,29.28125
203.600006,426.533325,75.333336,29.28125
203.46666,428.666656,71.466667,29.277344
204.533325,428.0,76.400002,29.28125
205.333328,433.200012,76.533333,29.277344
201.200012,424.266663,76.933334,29.28125
204.533325,431.866699,71.599998,29.28125
200.666672,424.933319,77.333328,29.277344
206.800003,434.266663,77.733337,29.277344
201.733337,422.666656,72.800003,29.277344
204.933334,433.066681,76.0,29.277344
201.333328,424.266663,74.133331,29.277344
203.199997,433.200012,78.933334,29.277344
202.53334,424.133331,70.933334,29.277344
206.399994,431.733337,77.733337,29.277344
199.866653,424.933319,72.933334,29.277344
203.46666,428.0,81.333328,29.277344
200.93335,427.599976,68.933334,29.277344
204.933334,429.466675,80.533333,29.277344
201.066666,426.266663,69.866669,29.277344
203.600006,426.933319,77.199997,29.273438
201.600006,430.266693,70.800003,29.277344
203.066681,424.0,71.199997,29.273438
203.333344,433.866638,78.666672,29.277344
205.466675,425.600006,67.733337,29.273438
203.199997,429.733307,82.0,29.273438
200.266663,426.799988,67.733337,29.273438
204.666672,430.533325,79.599998,29.273438
203.066681,430.0,70.133331,29.273438
204.266663,427.599976,78.933334,29.273438
202.666656,429.733307,69.466667,29.273438
204.933334,427.466675,79.599998,29.273438
206.933319,433.600006,71.066666,29.273438
200.800003,424.133331,78.666672,29.273438
203.199997,431.866699,69.199997,29.273438
201.466675,424.133331,80.266663,29.273438
205.333328,434.133331,76.933334,29.273438
202.0,424.266663,71.599998,29.273438
204.400009,431.199982,76.533333,29.273438
202.399994,425.066681,73.466667,29.273438
208.266663,430.93335,80.266663,29.269531
199.06665,425.466644,70.266663,29.273438
208.666672,431.199982,77.600006,29.269531
201.200012,426.533325,73.066666,29.269531
205.866669,427.866669,80.400002,29.273438
200.533325,427.200012,68.666672,29.269531
204.799988,430.266693,80.666664,29.265625
201.333328,428.133301,68.533333,29.273438
204.799988,427.333344,80.800003,29.269531
202.133331,430.133331,68.0,29.269531
205.599991,427.466675,80.400002,29.269531
198.533325,430.533325,70.0,29.269531
202.53334,423.200012,78.666672,29.269531
202.266678,432.400024,72.399994,29.269531
203.866669,423.866638,75.599998,29.269531
201.466675,434.133331,73.466667,29.269531
201.333328,427.06665,69.866669,29.265625
203.199997,430.666656,79.733337,29.269531
202.0,425.066681,69.733337,29.265625
202.53334,432.799988,79.333336,29.269531
200.93335,431.866699,68.666672,29.269531
203.46666,427.06665,81.466667,29.269531
205.200012,429.333344,64.933334,29.269531
204.533325,428.533325,81.599998,29.265625
201.066666,435.333313,71.466667,29.265625
204.266663,421.600006,78.133331,29.269531
203.46666,433.733337,69.866669,29.265625
204.133331,422.799988,79.066666,29.265625
202.666656,436.0,74.400002,29.269531
204.533325,420.800018,73.200005,29.265625
199.06665,433.733337,73.066666,29.269531
204.533325,422.533325,77.199997,29.265625
202.133331,432.400024,75.866669,29.265625
205.066666,420.400024,70.800003,29.265625
200.93335,434.933319,74.533333,29.265625
205.599991,419.733307,75.199997,29.265625
203.866669,431.466675,79.333336,29.265625
202.666656,424.933319,68.400002,29.265625
200.533325,433.200012,81.866669,29.265625
204.666672,423.200012,66.0,29.265625
203.333344,428.0,83.46666,29.265625
203.066681,430.133331,66.133331,29.261719
203.866669,429.866669,82.666664,29.261719
202.933334,425.866669,66.400002,29.265625
207.066666,424.399994,82.0,29.261719
200.93335,431.199982,67.333328,29.261719
206.0,426.399994,82.266663,29.261719
203.199997,431.333344,64.933334,29.265625
207.600006,420.400024,76.266663,29.261719
198.266663,433.200012,71.333328,29.261719
205.866669,423.866638,82.133331,29.261719
201.066666,433.866638,68.533333,29.261719
200.133347,427.466675,65.866669,29.261719
206.53334,430.800018,83.199997,29.261719
200.93335,429.599976,66.133331,29.261719
204.933334,428.133301,81.866669,29.261719
198.933334,433.600006,71.333328,29.261719
208.266663,424.266663,79.733337,29.261719
196.266663,431.06665,69.066666,29.265625
207.333344,427.466675,83.599998,29.257812
205.466675,434.0,80.933334,29.261719
201.600006,424.133331,66.266663,29.261719
205.466675,432.93335,78.933334,29.261719
200.133347,424.666687,68.800003,29.261719
205.066666,431.466675,84.266663,29.261719
199.866653,428.533325,65.066666,29.257812
208.533325,430.133331,81.866669,29.261719
198.0,429.06665,68.400002,29.261719
206.399994,425.333313,82.399994,29.257812
201.200012,430.533325,66.400002,29.257812
206.266663,428.133301,84.799995,29.257812
200.533325,430.533325,65.466667,29.257812
206.0,423.733337,73.599998,29.257812
202.266678,433.066681,74.400002,29.261719
206.933319,421.733337,73.333336,29.257812
200.0,433.466675,74.933334,29.257812
204.400009,426.133362,67.733337,29.257812
203.46666,431.06665,80.0,29.257812
204.133331,423.866638,66.0,29.257812
203.066681,433.066681,78.533333,29.257812
200.400009,429.733307,66.666664,29.257812
205.466675,429.466675,80.400002,29.257812
202.53334,427.466675,67.066666,29.257812
202.0,430.533325,82.266663,29.257812
198.533325,430.93335,68.800003,29.257812
207.733322,426.666687,79.599998,29.257812
201.466675,432.0,66.533333,29.257812
205.066666,426.799988,82.0,29.253906
201.600006,433.600006,68.666672,29.257812
207.600006,423.600006,81.199997,29.257812
200.93335,433.733337,68.26667,29.257812
206.933319,422.93335,81.066666,29.257812
199.199997,432.266663,74.933334,29.253906
208.133331,422.400024,72.133331,29.257812
201.200012,433.600006,76.400002,29.257812
205.200012,420.800018,73.466667,29.253906
203.199997,431.600006,78.26667,29.253906
204.266663,424.266663,69.066666,29.257812
203.733337,432.93335,79.333336,29.253906
202.800003,421.600006,69.733337,29.253906
204.133331,427.733337,81.866669,29.253906
204.799988,428.800018,63.866669,29.253906
200.93335,430.133331,84.0,29.253906
203.733337,426.533325,64.666664,29.253906
204.933334,424.266663,82.0,29.253906
202.666656,431.466675,66.799995,29.253906
203.46666,427.599976,84.533325,29.253906
202.0,429.06665,66.0,29.253906
206.399994,422.93335,80.400002,29.25
202.399994,433.333313,68.400002,29.25
203.066681,424.933319,82.399994,29.253906
205.066666,431.733337,66.133331,29.253906
206.666656,422.93335,73.200005,29.25
201.600006,433.866638,71.466667,29.25
203.066681,423.066681,74.800003,29.25
203.600006,431.733337,73.466667,29.25
203.199997,423.866638,68.133331,29.25
203.866669,432.400024,80.266663,29.25
202.133331,425.600006,68.0,29.25
204.666672,432.0,76.666664,29.25
201.466675,428.666656,63.333336,29.25
202.266678,429.599976,85.600006,29.25
202.933334,425.733337,66.799995,29.25
205.733337,431.06665,79.599998,29.246094
201.333328,429.333344,66.933334,29.25
206.53334,427.466675,82.266663,29.25
201.333328,430.400024,68.933334,29.25
206.133331,426.666687,82.266663,29.25
205.200012,431.600006,67.600006,29.25
204.0,425.600006,81.599998,29.25
201.600006,430.800018,66.266663,29.25
206.800003,426.399994,80.666664,29.25
204.266663,430.800018,74.400002,29.25
202.266678,425.466644,76.0,29.25
202.266678,430.266693,71.066666,29.25
203.066681,427.200012,78.400002,29.25
204.133331,429.599976,77.466667,29.25
200.533325,426.933319,73.733337,29.25
206.0,429.466675,74.800003,29.246094
201.200012,426.266663,75.73333,29.25
206.266663,429.06665,80.400002,29.246094
201.466675,426.666687,68.666672,29.246094
205.599991,427.866669,79.733337,29.25
201.733337,427.599976,70.266663,29.246094
204.266663,429.599976,81.333328,29.246094
201.866669,427.200012,66.666664,29.246094
205.200012,429.466675,81.066666,29.246094
204.933334,431.600006,69.599998,29.246094
203.733337,426.399994,68.400002,29.25
204.933334,424.799988,75.599998,29.246094
202.933334,431.199982,69.199997,29.246094
203.199997,426.533325,79.066666,29.246094
201.600006,430.800018,73.066666,29.246094
203.46666,426.0,74.0,29.246094
204.266663,429.599976,74.933334,29.246094
204.133331,429.199982,74.933334,29.246094
204.533325,428.93335,79.599998,29.246094
201.200012,427.333344,71.73333,29.246094
206.53334,428.800018,75.333336,29.246094
202.666656,429.06665,71.866669,29.246094
205.733337,429.06665,79.466667,29.246094
202.266678,429.06665,69.199997,29.246094
204.933334,426.799988,79.066666,29.246094
201.066666,427.866669,69.733337,29.246094
204.933334,428.133301,79.866669,29.246094
200.266663,429.466675,70.533333,29.246094
208.0,427.599976,76.0,29.246094
199.733337,429.733307,72.933334,29.242188
205.333328,429.599976,74.800003,29.242188
202.399994,430.666656,73.066666,29.242188
205.333328,428.266663,75.466667,29.242188
201.200012,429.733307,72.800003,29.246094
205.066666,430.133331,73.866669,29.242188
203.600006,426.666687,75.066666,29.242188
206.53334,428.800018,70.266663,29.242188
206.0,428.0,78.933334,29.242188
206.0,429.199982,68.133331,29.242188
204.266663,430.133331,77.466667,29.246094
203.199997,426.133362,69.599998,29.242188
203.866669,429.733307,77.866669,29.242188
206.666656,426.133362,74.400002,29.242188
202.800003,430.800018,75.333336,29.242188
202.666656,427.06665,73.733337,29.242188
206.53334,430.0,73.466667,29.238281
205.200012,427.200012,71.333328,29.242188
203.600006,429.06665,76.933334,29.242188
204.0,426.0,74.666664,29.242188
203.066681,430.400024,75.066666,29.242188
205.066666,425.200012,75.73333,29.242188
203.066681,429.866669,72.0,29.242188
204.0,425.333313,73.599998,29.242188
204.400009,429.466675,73.333336,29.242188
207.066666,428.93335,71.73333,29.242188
201.066666,427.733337,75.73333,29.242188
205.599991,427.866669,71.73333,29.242188
202.399994,429.199982,73.333336,29.238281
203.46666,427.866669,74.26667,29.238281
204.0,428.666656,75.866669,29.242188
203.733337,429.866669,75.866669,29.242188
203.866669,426.933319,74.0,29.238281
205.599991,426.533325,72.666672,29.238281
206.133331,428.266663,74.26667,29.238281
201.600006,428.0,77.199997,29.238281
205.200012,426.933319,70.933334,29.238281
204.266663,425.866669,71.73333,29.242188
202.800003,429.599976,75.73333,29.238281
202.53334,426.399994,73.200005,29.238281
203.600006,428.93335,74.26667,29.238281
204.400009,426.399994,73.200005,29.238281
201.466675,430.0,74.26667,29.238281
203.199997,426.533325,70.666664,29.238281
204.400009,429.466675,75.333336,29.238281
206.133331,426.799988,72.399994,29.238281
200.800003,428.533325,73.599998,29.238281
205.866669,426.666687,74.133331,29.238281
202.666656,431.600006,73.733337,29.238281
203.866669,428.266663,74.800003,29.238281
203.333344,429.599976,73.466667,29.234375
203.866669,427.866669,75.599998,29.238281
201.333328,430.266693,73.066666,29.238281
199.599991,425.333313,76.266663,29.238281
206.666656,431.733337,71.73333,29.238281
203.46666,427.733337,74.133331,29.234375
202.266678,430.666656,73.866669,29.234375
201.866669,424.799988,72.933334,29.234375
205.866669,431.466675,76.799995,29.238281
202.933334,427.599976,74.666664,29.234375
204.400009,430.133331,75.466667,29.234375
198.399994,427.333344,73.866669,29.234375
207.733322,430.133331,74.933334,29.238281
199.733337,426.266663,75.866669,29.234375
205.866669,427.866669,75.599998,29.234375
202.266678,426.266663,70.0,29.234375
206.266663,428.800018,77.066666,29.234375
200.93335,428.399994,70.133331,29.234375
206.133331,425.866669,76.799995,29.234375
203.600006,431.733337,72.399994,29.234375
207.733322,425.200012,73.599998,29.234375
199.199997,432.799988,74.400002,29.234375
206.666656,425.866669,74.666664,29.234375
203.066681,430.800018,72.266663,29.234375
204.933334,425.200012,76.533333,29.234375
202.933334,432.666656,72.933334,29.234375
205.733337,423.466675,75.066666,29.230469
205.066666,431.199982,75.466667,29.234375
203.733337,426.133362,73.333336,29.234375
200.93335,432.93335,78.533333,29.230469
206.133331,424.266663,68.800003,29.230469
205.599991,429.333344,76.666664,29.230469
202.133331,427.466675,70.800003,29.230469
204.933334,430.0,78.933334,29.234375
204.666672,426.133362,70.133331,29.230469
206.800003,424.533356,78.0,29.234375
202.53334,431.866699,69.733337,29.230469
205.066666,425.466644,78.800003,29.234375
204.133331,430.0,68.533333,29.230469
204.133331,422.666656,73.866669,29.230469
204.933334,434.0,72.933334,29.230469
203.46666,423.200012,76.666664,29.230469
204.133331,432.666656,71.199997,29.230469
203.600006,421.333344,71.599998,29.230469
204.133331,435.600006,77.600006,29.230469
201.866669,422.533325,73.599998,29.230469
205.333328,433.066681,74.933334,29.230469
201.866669,426.399994,66.666664,29.230469
208.799988,430.800018,79.466667,29.230469
199.06665,424.266663,69.733337,29.230469
206.800003,428.133301,79.866669,29.226562
201.200012,428.800018,68.400002,29.230469
207.199997,424.933319,80.0,29.226562
199.599991,433.466675,69.333336,29.230469
205.866669,422.666656,78.533333,29.230469
202.53334,434.133331,75.199997,29.230469
208.0,422.533325,73.333336,29.226562
198.133331,434.0,73.599998,29.226562
208.0,424.133331,76.799995,29.226562
202.933334,432.266663,74.133331,29.226562
203.199997,424.0,76.400002,29.230469
200.800003,431.600006,70.800003,29.226562
205.733337,423.733337,76.933334,29.226562
206.800003,432.0,76.799995,29.226562
202.399994,425.200012,72.0,29.226562
204.933334,432.133331,77.199997,29.226562
206.0,423.066681,67.600006,29.226562
206.933319,427.599976,78.133331,29.226562
199.333328,426.399994,69.733337,29.226562
204.933334,430.666656,78.400002,29.226562
202.0,426.133362,69.866669,29.230469
207.46666,426.666687,82.266663,29.226562
198.533325,429.06665,66.933334,29.226562
205.733337,429.06665,81.199997,29.226562
199.599991,429.466675,68.133331,29.226562
208.399994,424.933319,80.933334,29.226562
198.399994,431.866699,69.599998,29.226562
208.666672,426.799988,81.599998,29.222656
199.199997,429.06665,64.666664,29.226562
205.466675,426.266663,82.266663,29.226562
200.666672,429.599976,66.0,29.222656
204.533325,430.0,84.0,29.226562
200.666672,428.666656,65.73333,29.222656
203.46666,424.399994,66.933334,29.222656
200.666672,432.666656,79.866669,29.222656
206.399994,422.133331,68.400002,29.222656
202.800003,434.399994,79.466667,29.222656
202.933334,428.93335,65.866669,29.222656
203.066681,431.333344,82.399994,29.222656
202.0,424.399994,67.600006,29.222656
202.53334,433.066681,78.666672,29.222656
202.666656,431.733337,66.666664,29.222656
205.866669,427.06665,83.73333,29.226562
205.466675,431.466675,63.333336,29.222656
203.333344,428.0,87.200005,29.222656
203.46666,434.0,69.733337,29.222656
205.066666,423.333313,81.466667,29.222656
202.266678,433.600006,68.0,29.222656
204.933334,424.533356,81.866669,29.222656
202.133331,435.600006,74.26667,29.222656
204.266663,420.533325,73.866669,29.222656
203.066681,434.266663,71.73333,29.222656
202.399994,421.333344,80.266663,29.222656
199.866653,433.600006,76.0,29.222656
207.333344,421.06665,70.933334,29.222656
204.666672,433.466675,78.0,29.222656
202.133331,423.333313,68.666672,29.222656
206.800003,430.93335,84.533325,29.222656
200.133347,428.666656,65.73333,29.222656
206.933319,428.533325,83.866661,29.21875
199.599991,431.333344,65.199997,29.222656
208.666672,423.600006,78.933334,29.222656
198.399994,433.866638,72.666672,29.21875
208.799988,422.133331,76.133331,29.21875
204.533325,434.933319,74.0,29.222656
203.866669,424.666687,64.800003,29.222656
204.0,433.600006,80.133331,29.21875
200.93335,427.866669,66.266663,29.21875
207.600006,429.06665,82.666664,29.21875
201.466675,431.600006,67.333328,29.21875
210.266663,424.266663,78.933334,29.21875
202.0,434.266663,73.599998,29.21875
203.46666,426.666687,67.066666,29.222656
206.0,425.466644,83.066666,29.21875
199.333328,431.333344,66.133331,29.222656
206.133331,425.600006,82.666664,29.21875
201.733337,432.666656,66.799995,29.21875
207.46666,421.866699,78.400002,29.21875
200.133347,435.333313,71.466667,29.21875
204.933334,422.133331,75.599998,29.21875
205.066666,434.266663,70.933334,29.21875
206.0,421.733337,66.799995,29.21875
203.733337,434.666687,78.133331,29.21875
204.133331,420.133331,71.599998,29.21875
204.0,434.799988,75.199997,29.21875
203.066681,426.533325,66.666664,29.21875
202.399994,431.733337,78.666672,29.21875
204.400009,423.466675,68.533333,29.214844
204.933334,432.400024,82.133331,29.21875
204.266663,428.666656,63.600002,29.214844
202.53334,428.533325,86.133339,29.21875
202.800003,427.466675,64.533333,29.21875
206.0,430.0,84.133331,29.214844
203.199997,432.93335,68.133331,29.21875
203.866669,425.200012,80.666664,29.214844
202.666656,430.533325,67.866669,29.21875
206.399994,425.733337,81.866669,29.214844
207.333344,432.666656,71.866669,29.214844
201.600006,423.600006,77.333328,29.21875
203.199997,432.133331,70.933334,29.214844
205.066666,425.333313,75.199997,29.214844
205.599991,429.466675,79.466667,29.214844
202.0,428.0,68.0,29.214844
205.333328,428.533325,78.666672,29.214844
203.333344,428.666656,68.400002,29.214844
203.600006,424.266663,74.26667,29.21875
205.866669,432.266663,69.866669,29.214844
203.600006,424.399994,79.333336,29.214844
201.333328,432.0,71.066666,29.214844
201.200012,427.466675,68.933334,29.214844
204.799988,428.266663,77.733337,29.214844
203.199997,428.533325,70.0,29.214844
203.46666,429.466675,77.066666,29.214844
201.466675,430.533325,67.066666,29.214844
205.333328,427.333344,81.199997,29.214844
201.333328,429.333344,69.866669,29.214844
205.066666,428.399994,78.400002,29.214844
199.199997,430.133331,67.733337,29.214844
207.333344,426.799988,82.133331,29.214844
200.800003,430.800018,66.400002,29.214844
205.200012,425.333313,80.666664,29.214844
202.800003,431.733337,70.666664,29.214844
207.199997,424.266663,78.0,29.214844
201.066666,433.866638,72.800003,29.214844
204.0,424.399994,74.533333,29.214844
200.133347,430.93335,75.333336,29.210938
207.066666,425.866669,75.066666,29.214844
200.533325,430.266693,70.933334,29.214844
206.399994,426.399994,79.333336,29.214844
203.733337,428.666656,81.466667,29.210938
201.466675,427.599976,66.400002,29.214844
205.866669,428.800018,80.133331,29.210938
200.93335,426.799988,67.600006,29.210938
203.199997,427.733337,82.133331,29.214844
203.066681,429.06665,66.0,29.214844
205.866669,427.333344,82.666664,29.210938
198.533325,430.0,68.400002,29.210938
203.066681,426.533325,76.933334,29.210938
202.266678,429.599976,71.866669,29.214844
204.533325,427.466675,77.333328,29.210938
201.866669,429.733307,71.333328,29.210938
203.600006,428.93335,72.800003,29.210938
204.933334,428.800018,73.333336,29.210938
201.200012,426.799988,77.600006,29.210938
205.866669,426.933319,81.466667,29.210938
204.133331,430.400024,70.266663,29.210938
204.0,428.666656,77.866669,29.210938
201.866669,428.666656,70.266663,29.210938
206.133331,428.533325,78.666672,29.210938
204.133331,428.666656,75.066666,29.210938
202.666656,429.466675,74.533333,29.210938
202.399994,429.466675,73.866669,29.210938
206.933319,428.800018,73.733337,29.210938
207.199997,427.06665,74.533333,29.210938
203.600006,429.866669,70.666664,29.210938
203.733337,426.399994,77.466667,29.210938
204.933334,429.599976,68.800003,29.210938
205.733337,425.333313,77.199997,29.210938
202.266678,430.400024,71.466667,29.207031
204.0,424.799988,76.666664,29.210938
203.46666,429.733307,70.800003,29.210938
207.600006,428.133301,75.066666,29.210938
199.866653,429.333344,73.466667,29.207031
205.599991,427.06665,74.133331,29.210938
202.666656,430.666656,71.866669,29.207031
205.333328,428.533325,75.333336,29.210938
202.53334,430.800018,73.733337,29.207031
204.266663,426.533325,75.73333,29.207031
201.600006,429.733307,71.066666,29.210938
206.0,428.266663,75.199997,29.210938
200.0,428.800018,76.400002,29.207031
207.733322,429.06665,70.533333,29.210938
202.266678,429.199982,77.333328,29.207031
206.0,429.06665,72.533333,29.207031
203.199997,428.133301,75.73333,29.207031
204.933334,426.399994,71.866669,29.207031
203.600006,429.333344,76.799995,29.207031
204.133331,428.666656,71.599998,29.207031
202.266678,428.800018,77.199997,29.207031
204.666672,427.333344,68.26667,29.207031
203.199997,427.333344,79.066666,29.207031
206.800003,428.533325,70.800003,29.207031
202.0,430.800018,75.866669,29.207031
204.133331,426.266663,70.800003,29.207031
202.933334,431.466675,76.133331,29.207031
203.066681,428.93335,73.866669,29.207031
203.333344,430.533325,75.066666,29.207031
204.799988,425.866669,74.0,29.207031
201.333328,430.533325,78.533333,29.203125
205.333328,426.799988,74.0,29.207031
200.533325,429.466675,78.400002,29.207031
203.46666,427.866669,74.26667,29.207031
201.200012,430.533325,75.73333,29.203125
204.666672,428.533325,74.0,29.203125
202.666656,427.466675,74.0,29.203125
205.066666,426.799988,74.533333,29.207031
203.866669,428.533325,74.133331,29.203125
204.933334,429.199982,74.133331,29.203125
200.93335,426.799988,75.466667,29.207031
206.666656,428.800018,70.666664,29.207031
202.800003,429.199982,75.066666,29.203125
206.266663,432.400024,75.199997,29.207031
201.866669,426.0,72.533333,29.203125
204.266663,431.600006,73.733337,29.203125
201.066666,426.533325,73.733337,29.203125
204.266663,434.399994,74.533333,29.207031
201.466675,425.600006,72.0,29.203125
205.333328,432.533325,75.333336,29.203125
200.666672,425.333313,72.933334,29.203125
203.199997,432.93335,76.133331,29.203125
204.133331,423.066681,71.599998,29.203125
204.400009,433.333313,76.799995,29.203125
201.866669,423.600006,72.533333,29.203125
203.600006,430.533325,76.933334,29.203125
202.933334,424.266663,73.200005,29.203125
203.866669,431.06665,80.266663,29.203125
203.866669,424.399994,69.599998,29.203125
202.933334,428.399994,78.933334,29.203125
204.133331,426.133362,72.133331,29.203125
203.866669,430.666656,77.066666,29.203125
203.866669,424.666687,69.199997,29.203125
204.533325,426.133362,75.333336,29.203125
204.0,428.93335,70.533333,29.199219
203.333344,428.133301,77.199997,29.203125
205.466675,427.333344,67.066666,29.203125
201.733337,424.799988,75.066666,29.199219
206.133331,432.266663,70.800003,29.203125
202.666656,426.533325,76.266663,29.203125
203.866669,429.866669,71.333328,29.203125
202.0,424.133331,72.533333,29.203125
204.0,434.533356,75.066666,29.203125
202.666656,424.666687,74.800003,29.199219
204.0,432.666656,70.533333,29.199219
203.333344,424.799988,69.333336,29.203125
205.333328,432.799988,77.333328,29.199219
199.466675,424.0,73.333336,29.203125
205.599991,432.799988,77.333328,29.203125
203.866669,425.600006,68.0,29.199219
204.533325,431.866699,80.0,29.199219
201.066666,425.466644,70.266663,29.203125
206.133331,430.266693,78.0,29.199219
202.0,428.266663,67.600006,29.203125
205.333328,428.800018,81.466667,29.203125
199.866653,426.933319,66.400002,29.199219
207.733322,430.266693,78.666672,29.199219
203.46666,430.0,68.666672,29.199219
202.933334,427.466675,79.599998,29.199219
202.0,426.799988,67.600006,29.199219
206.0,428.399994,80.266663,29.199219
202.133331,432.533325,69.599998,29.199219
204.266663,424.666687,78.933334,29.199219
204.133331,428.800018,68.26667,29.199219
201.733337,428.0,82.266663,29.199219
204.266663,432.93335,72.533333,29.199219
202.933334,422.533325,76.0,29.199219
203.866669,432.93335,72.133331,29.199219
203.333344,424.799988,77.333328,29.199219
203.333344,435.466644,76.799995,29.199219
203.199997,421.866699,71.599998,29.199219
205.333328,433.466675,76.266663,29.199219
201.466675,423.333313,75.599998,29.199219
206.666656,432.533325,81.599998,29.199219
200.266663,424.666687,69.333336,29.199219
203.866669,433.600006,78.666672,29.199219
201.466675,421.199982,71.466667,29.199219
204.133331,432.666656,80.133331,29.195312
202.933334,422.266663,68.800003,29.195312
204.666672,434.666687,80.133331,29.199219
203.600006,421.600006,69.599998,29.199219
203.066681,429.466675,83.599998,29.199219
203.733337,427.599976,63.733334,29.199219
202.933334,431.866699,84.133331,29.195312
203.866669,423.866638,65.73333,29.199219
204.533325,426.933319,80.800003,29.199219
201.600006,430.400024,66.533333,29.199219
204.799988,428.133301,82.133331,29.195312
202.933334,427.733337,65.333336,29.199219
204.533325,421.600006,78.0,29.195312
206.133331,433.733337,67.333328,29.195312
202.53334,423.066681,83.199997,29.195312
203.866669,432.400024,65.199997,29.195312
204.666672,420.133331,73.333336,29.195312
203.066681,435.200012,72.266663,29.195312
203.333344,422.266663,75.466667,29.195312
204.0,432.266663,71.466667,29.195312
202.0,420.800018,68.0,29.195312
203.600006,435.066681,77.066666,29.195312
201.066666,425.600006,68.133331,29.195312
206.53334,432.266663,74.133331,29.195312
201.466675,424.533356,64.0,29.195312
206.266663,433.733337,81.599998,29.195312
201.866669,425.466644,67.066666,29.195312
205.066666,433.466675,79.199997,29.195312
202.0,427.06665,64.533333,29.195312
205.333328,430.800018,83.866661,29.195312
200.266663,428.399994,65.73333,29.195312
207.600006,428.533325,82.533333,29.195312
202.399994,431.866699,65.199997,29.195312
204.799988,425.733337,85.200005,29.195312
200.266663,429.333344,63.066669,29.191406
204.799988,431.466675,83.599998,29.195312
202.53334,433.066681,67.066666,29.191406
204.666672,426.0,82.799995,29.195312
201.733337,430.133331,65.866669,29.195312
205.333328,429.06665,84.0,29.195312
202.133331,433.733337,70.0,29.195312
203.866669,425.600006,80.666664,29.191406
203.46666,432.666656,66.266663,29.191406
201.466675,427.866669,84.0,29.195312
199.733337,433.066681,66.400002,29.191406
207.333344,422.533325,81.466667,29.195312
198.799988,432.400024,66.533333,29.195312
206.666656,426.266663,82.133331,29.191406
201.733337,431.600006,66.533333,29.191406
207.199997,424.799988,81.73333,29.195312
198.0,431.199982,68.0,29.191406
210.133347,426.0,79.733337,29.195312
199.599991,433.600006,72.0,29.191406
206.399994,421.733337,75.199997,29.191406
200.666672,433.466675,70.266663,29.191406
205.200012,420.533325,78.400002,29.195312
203.333344,431.733337,77.333328,29.191406
204.0,424.133331,68.800003,29.191406
202.666656,435.066681,78.800003,29.191406
206.266663,421.06665,67.866669,29.191406
203.600006,430.133331,79.866669,29.191406
203.600006,424.533356,68.533333,29.1875
204.266663,431.733337,79.866669,29.191406
202.666656,423.200012,70.133331,29.191406
208.0,426.933319,82.133331,29.191406
200.533325,431.06665,66.533333,29.191406
204.799988,428.0,83.066666,29.191406
202.933334,428.800018,64.933334,29.191406
205.200012,422.400024,78.400002,29.191406
204.933334,434.0,68.0,29.1875
201.200012,422.93335,84.133331,29.1875
201.200012,431.600006,67.600006,29.191406
203.600006,419.866669,71.866669,29.191406
204.666672,432.93335,75.199997,29.191406
203.733337,420.93335,76.266663,29.191406
202.0,433.200012,70.133331,29.1875
203.866669,420.0,69.066666,29.1875
201.733337,433.333313,77.466667,29.1875
205.200012,421.199982,73.333336,29.1875
204.266663,434.0,72.133331,29.191406
205.200012,422.533325,69.066666,29.191406
201.733337,433.200012,75.466667,29.1875
204.533325,420.266693,71.599998,29.1875
202.933334,434.666687,76.400002,29.191406
203.46666,426.666687,66.666664,29.1875
203.600006,431.600006,80.800003,29.1875
204.266663,425.066681,62.933334,29.1875
205.599991,431.600006,82.933334,29.1875
204.666672,430.533325,63.866669,29.1875
203.866669,428.93335,83.333328,29.1875
202.800003,427.866669,64.666664,29.1875
206.399994,430.0,85.200005,29.1875
201.600006,433.466675,67.199997,29.1875
203.733337,425.733337,83.333328,29.1875
201.466675,431.06665,65.866669,29.1875
201.200012,429.599976,82.666664,29.1875
201.066666,432.666656,70.533333,29.1875
204.666672,425.066681,80.533333,29.1875
200.93335,433.466675,67.199997,29.1875
205.066666,425.866669,82.799995,29.1875
200.93335,434.666687,74.400002,29.1875
204.0,421.733337,74.0,29.1875
204.400009,432.533325,73.466667,29.1875
203.600006,422.533325,76.533333,29.1875
203.733337,431.866699,80.0,29.183594
201.866669,424.0,69.333336,29.183594
204.266663,433.200012,75.199997,29.183594
204.0,422.666656,75.333336,29.183594
202.0,432.400024,78.400002,29.1875
204.0,423.200012,69.066666,29.1875
204.266663,432.533325,78.666672,29.1875
202.666656,424.266663,69.066666,29.1875
203.866669,429.866669,82.133331,29.1875
205.599991,426.533325,65.199997,29.183594
203.733337,430.800018,84.399994,29.183594
201.866669,425.600006,65.73333,29.183594
204.400009,426.799988,80.666664,29.183594
203.199997,429.199982,67.199997,29.183594
203.600006,429.599976,81.73333,29.183594
203.866669,426.0,68.0,29.183594
205.333328,425.333313,80.666664,29.183594
201.466675,430.533325,67.333328,29.183594
204.266663,428.533325,79.866669,29.183594
203.600006,427.06665,73.333336,29.183594
208.666672,427.866669,79.066666,29.183594
200.93335,430.0,67.866669,29.183594
206.666656,426.0,79.733337,29.183594
200.93335,429.199982,69.199997,29.183594
205.333328,428.0,81.333328,29.183594
200.400009,428.133301,66.933334,29.179688
206.800003,427.333344,81.599998,29.183594
201.066666,430.93335,66.533333,29.183594
209.06665,426.133362,78.133331,29.183594
198.933334,431.333344,72.399994,29.183594
204.400009,423.600006,73.866669,29.183594
201.066666,433.066681,72.933334,29.183594
204.666672,426.133362,70.933334,29.183594
201.866669,431.06665,75.599998,29.183594
205.466675,424.399994,72.0,29.183594
203.600006,432.133331,76.133331,29.183594
204.400009,428.399994,64.933334,29.179688
204.0,428.133301,82.266663,29.179688
201.733337,428.399994,66.400002,29.179688
207.733322,428.399994,78.533333,29.179688
204.533325,428.533325,68.400002,29.179688
205.333328,428.533325,80.400002,29.183594
202.53334,427.599976,67.866669,29.183594
206.0,427.733337,79.599998,29.183594
203.46666,429.866669,72.533333,29.183594
203.733337,428.399994,78.800003,29.179688
203.600006,428.93335,66.400002,29.183594
203.733337,427.06665,82.0,29.179688
203.333344,431.733337,72.0,29.179688
203.066681,425.466644,76.666664,29.183594
201.466675,430.133331,70.133331,29.179688
204.133331,425.733337,78.0,29.179688
201.733337,432.0,73.200005,29.179688
205.066666,425.333313,75.866669,29.179688
203.199997,431.600006,71.866669,29.179688
202.133331,427.06665,77.600006,29.179688
200.133347,429.866669,77.600006,29.179688
205.733337,426.666687,75.333336,29.179688
202.53334,431.733337,74.26667,29.179688
204.533325,426.533325,74.666664,29.179688
202.266678,429.06665,75.199997,29.175781
205.733337,426.666687,72.800003,29.179688
201.733337,430.0,74.666664,29.179688
205.200012,426.0,72.533333,29.179688
201.600006,427.466675,75.866669,29.179688
207.333344,428.800018,71.333328,29.179688
200.800003,428.0,78.400002,29.179688
205.066666,426.533325,72.666672,29.179688
202.800003,425.600006,75.466667,29.179688
203.333344,429.733307,72.266663,29.179688
202.133331,427.733337,75.73333,29.179688
204.666672,426.533325,70.800003,29.179688
204.266663,425.866669,74.400002,29.179688
206.0,428.666656,70.933334,29.179688
200.533325,427.599976,78.133331,29.179688
206.399994,427.466675,68.26667,29.179688
204.533325,425.866669,74.133331,29.179688
203.733337,429.599976,71.599998,29.179688
203.46666,428.0,75.333336,29.179688
204.400009,428.0,71.199997,29.179688
205.200012,427.866669,74.533333,29.179688
202.666656,429.733307,74.533333,29.179688
201.066666,429.599976,76.266663,29.175781
205.866669,427.866669,70.533333,29.175781
204.400009,429.733307,72.399994,29.179688
202.0,429.199982,75.333336,29.175781
203.866669,429.866669,76.0,29.175781
204.0,426.799988,74.0,29.179688
201.733337,426.533325,72.666672,29.179688
204.0,427.866669,74.666664,29.175781
203.333344,428.93335,74.533333,29.175781
205.066666,426.266663,70.933334,29.175781
202.0,426.933319,72.0,29.175781
207.333344,428.666656,71.466667,29.179688
202.266678,428.133301,74.133331,29.175781
203.066681,426.933319,73.866669,29.175781
202.800003,425.333313,72.266663,29.175781
203.199997,431.466675,74.666664,29.175781
201.333328,427.333344,74.666664,29.175781
203.600006,428.800018,73.599998,29.175781
202.133331,426.133362,71.466667,29.175781
206.933319,432.666656,75.599998,29.175781
199.866653,427.333344,75.866669,29.175781
205.200012,430.266693,75.199997,29.175781
204.0,425.066681,72.666672,29.175781
205.066666,431.466675,76.666664,29.175781
201.466675,425.333313,73.599998,29.175781
203.333344,432.0,76.0,29.175781
204.266663,424.666687,73.466667,29.175781
200.93335,431.199982,79.733337,29.175781
204.799988,424.933319,69.866669,29.171875
207.066666,430.800018,74.933334,29.175781
203.866669,424.933319,71.066666,29.175781
204.0,430.0,78.26667,29.175781
202.133331,425.733337,70.933334,29.175781
205.733337,428.666656,77.600006,29.175781
203.46666,427.733337,70.933334,29.175781
203.600006,427.866669,78.26667,29.175781
200.93335,429.199982,69.466667,29.175781
206.0,427.333344,78.666672,29.175781
206.666656,431.733337,69.599998,29.175781
202.800003,426.933319,76.266663,29.175781
202.666656,430.133331,71.066666,29.175781
202.666656,424.0,71.199997,29.171875
205.066666,428.399994,78.0,29.175781
203.733337,425.866669,70.0,29.175781
205.733337,429.866669,80.133331,29.175781
200.666672,427.200012,70.800003,29.175781
200.533325,425.600006,80.133331,29.175781
204.933334,428.800018,66.400002,29.171875
204.933334,428.399994,79.599998,29.175781
202.399994,428.399994,69.066666,29.171875
203.46666,423.200012,76.533333,29.171875
202.133331,431.733337,71.333328,29.175781
203.600006,426.133362,78.0,29.171875
202.53334,429.06665,69.599998,29.171875
203.600006,423.600006,73.466667,29.175781
204.400009,433.200012,71.333328,29.171875
199.866653,424.0,78.533333,29.171875
203.199997,431.199982,70.0,29.171875
204.133331,419.733307,72.933334,29.171875
203.866669,435.600006,75.333336,29.171875
203.333344,422.0,72.800003,29.171875
203.199997,434.0,73.066666,29.175781
202.800003,422.133331,69.866669,29.171875
205.733337,433.333313,78.666672,29.171875
202.0,421.866699,70.533333,29.175781
206.266663,434.133331,75.599998,29.171875
203.333344,424.133331,68.533333,29.171875
203.733337,433.866638,79.066666,29.171875
203.733337,421.866699,72.0,29.171875
203.199997,434.933319,77.066666,29.171875
202.133331,427.200012,67.733337,29.171875
204.533325,430.93335,80.266663,29.171875
203.866669,426.0,64.933334,29.171875
202.666656,431.733337,82.933334,29.171875
204.133331,430.666656,65.466667,29.171875
204.799988,427.733337,80.800003,29.171875
201.733337,427.06665,66.933334,29.171875
205.066666,432.133331,82.0,29.171875
201.333328,433.066681,68.666672,29.171875
204.666672,425.600006,80.533333,29.171875
201.733337,430.0,67.866669,29.171875
205.066666,428.266663,81.866669,29.171875
200.533325,433.466675,72.266663,29.171875
204.133331,423.333313,77.333328,29.171875
205.066666,433.333313,68.133331,29.171875
204.666672,424.133331,79.866669,29.171875
202.133331,435.466644,76.799995,29.171875
202.399994,422.0,72.0,29.171875
205.200012,433.200012,76.0,29.171875
201.866669,424.533356,71.866669,29.171875
209.866653,430.800018,80.133331,29.171875
197.866669,424.799988,68.933334,29.167969
207.733322,432.93335,77.333328,29.167969
200.666672,422.0,72.800003,29.167969
205.200012,432.133331,82.399994,29.167969
201.866669,422.93335,65.73333,29.171875
205.733337,432.93335,81.199997,29.171875
201.600006,424.799988,66.666664,29.167969
204.533325,428.133301,82.933334,29.167969
200.93335,426.266663,64.666664,29.167969
204.0,430.93335,84.533325,29.167969
202.666656,423.333313,64.666664,29.171875
206.399994,427.06665,82.266663,29.167969
202.266678,429.599976,66.0,29.167969
204.266663,430.533325,82.799995,29.167969
202.399994,426.533325,65.333336,29.167969
205.333328,423.333313,80.933334,29.167969
202.666656,432.799988,67.333328,29.171875
203.333344,426.266663,82.799995,29.167969
203.199997,430.533325,63.333336,29.167969
204.533325,421.600006,77.333328,29.167969
202.666656,434.799988,69.199997,29.167969
204.266663,423.066681,81.466667,29.167969
202.933334,432.266663,66.933334,29.167969
205.066666,419.466675,73.466667,29.167969
205.733337,432.266663,77.733337,29.167969
201.600006,424.799988,71.199997,29.167969
203.733337,431.733337,73.866669,29.171875
201.066666,423.333313,66.0,29.167969
205.733337,434.133331,77.333328,29.167969
199.733337,422.266663,70.933334,29.167969
204.0,434.799988,74.800003,29.167969
203.866669,422.666656,66.666664,29.167969
204.533325,434.533356,80.666664,29.167969
202.53334,422.799988,62.266663,29.167969
204.400009,434.266663,77.600006,29.167969
203.199997,426.533325,63.333336,29.167969
202.53334,431.733337,85.066673,29.167969
202.399994,425.600006,63.733334,29.167969
203.733337,432.666656,82.399994,29.164062
202.133331,430.533325,65.333336,29.167969
204.799988,428.266663,83.73333,29.167969
200.93335,429.333344,64.400002,29.167969
206.399994,428.266663,84.266663,29.167969
202.933334,430.533325,68.933334,29.167969
204.666672,424.533356,82.266663,29.167969
202.266678,430.800018,63.066669,29.167969
206.266663,426.266663,85.200005,29.164062
207.066666,433.600006,68.666672,29.167969
204.799988,426.933319,80.533333,29.167969
202.666656,431.333344,70.0,29.167969
203.733337,424.0,81.73333,29.164062
204.666672,432.133331,77.733337,29.164062
202.666656,422.266663,72.266663,29.167969
203.733337,432.533325,71.866669,29.167969
200.93335,422.533325,81.066666,29.167969
203.066681,433.866638,78.26667,29.164062
203.333344,421.466675,72.666672,29.164062
201.333328,435.066681,72.133331,29.167969
206.0,421.06665,80.0,29.164062
203.199997,433.466675,75.333336,29.167969
205.200012,420.666656,71.866669,29.167969
201.200012,434.666687,73.733337,29.164062
206.53334,419.733307,76.933334,29.164062
202.266678,432.133331,79.466667,29.164062
207.066666,424.133331,66.133331,29.164062
202.399994,432.93335,81.199997,29.164062
203.866669,422.0,69.199997,29.164062
204.0,428.666656,82.799995,29.164062
202.800003,427.333344,65.73333,29.164062
205.200012,431.466675,84.266663,29.164062
201.733337,426.933319,65.066666,29.164062
205.066666,425.600006,82.133331,29.164062
201.600006,431.600006,64.933334,29.164062
206.800003,425.066681,83.46666,29.164062
199.06665,431.866699,69.199997,29.164062
205.200012,424.266663,76.799995,29.164062
203.46666,430.133331,70.0,29.164062
204.266663,425.200012,80.0,29.164062
201.733337,431.333344,70.0,29.164062
203.066681,425.733337,70.533333,29.167969
202.53334,429.733307,76.400002,29.160156
203.866669,424.0,75.199997,29.164062
202.0,432.0,74.26667,29.164062
200.0,428.0,70.0,29.164062
203.866669,428.399994,78.800003,29.164062
202.800003,427.599976,70.0,29.164062
203.333344,429.333344,78.666672,29.164062
199.466675,432.400024,67.466667,29.164062
206.133331,424.533356,81.066666,29.164062
201.866669,431.866699,67.466667,29.164062
202.0,426.666687,84.533325,29.164062
201.066666,431.333344,73.466667,29.164062
206.0,424.0,78.933334,29.164062
199.866653,432.533325,68.800003,29.164062
205.066666,424.933319,80.800003,29.164062
200.533325,431.06665,71.066666,29.160156
206.666656,423.866638,79.333336,29.164062
201.600006,433.333313,70.666664,29.164062
204.400009,423.733337,78.666672,29.164062
200.0,431.333344,78.0,29.164062
206.266663,424.533356,70.266663,29.164062
199.733337,431.600006,76.266663,29.160156
204.266663,424.799988,73.200005,29.164062
202.266678,429.466675,77.466667,29.160156
203.46666,425.200012,73.066666,29.160156
201.466675,431.866699,75.73333,29.160156
205.333328,424.0,74.533333,29.164062
203.866669,428.399994,75.466667,29.160156
203.46666,426.533325,76.400002,29.164062
202.53334,430.0,69.866669,29.160156
204.666672,425.866669,80.266663,29.160156
206.0,429.866669,76.266663,29.160156
203.333344,426.0,74.533333,29.160156
204.799988,429.06665,74.133331,29.160156
203.066681,427.200012,76.799995,29.164062
204.0,429.466675,78.933334,29.160156
202.399994,428.266663,69.599998,29.164062
205.733337,426.533325,77.866669,29.160156
202.53334,428.266663,72.800003,29.160156
207.733322,427.200012,76.799995,29.160156
201.066666,428.399994,69.333336,29.160156
204.533325,426.133362,78.133331,29.160156
201.733337,429.06665,70.533333,29.160156
204.799988,429.06665,80.0,29.160156
202.800003,427.333344,69.199997,29.160156
202.933334,429.199982,79.599998,29.160156
202.53334,427.466675,69.733337,29.160156
202.266678,427.733337,81.599998,29.160156
205.066666,427.733337,66.133331,29.164062
205.200012,427.06665,80.666664,29.160156
202.53334,426.133362,68.933334,29.160156
203.866669,428.0,78.0,29.160156
204.400009,427.333344,68.800003,29.160156
204.933334,428.93335,77.866669,29.160156
202.266678,427.733337,67.066666,29.160156
201.866669,427.866669,78.666672,29.160156
204.666672,426.933319,80.800003,29.160156
201.466675,427.866669,70.666664,29.160156
207.733322,427.599976,75.066666,29.160156
204.533325,427.06665,69.199997,29.160156
205.066666,429.733307,78.400002,29.160156
201.866669,426.533325,69.199997,29.160156
205.733337,428.399994,78.0,29.160156
203.600006,428.399994,71.066666,29.160156
203.066681,428.800018,76.799995,29.160156
203.866669,428.93335,67.333328,29.160156
204.799988,429.466675,78.533333,29.160156
206.266663,429.333344,70.400002,29.160156
203.199997,429.733307,76.0,29.160156
203.066681,428.666656,71.199997,29.160156
204.533325,430.93335,77.066666,29.160156
204.533325,427.599976,74.800003,29.160156
202.399994,429.466675,74.533333,29.15625
204.400009,427.06665,73.066666,29.160156
201.600006,429.599976,79.333336,29.160156
206.933319,428.266663,74.400002,29.160156
200.533325,428.93335,75.066666,29.15625
203.866669,427.200012,74.133331,29.160156
202.666656,431.733337,75.866669,29.160156
202.666656,428.93335,75.73333,29.15625
204.133331,428.133301,74.26667,29.15625
202.53334,428.800018,74.800003,29.15625
204.0,429.333344,74.533333,29.160156
200.0,426.666687,77.333328,29.15625
205.333328,428.399994,72.133331,29.15625
200.266663,427.06665,78.0,29.15625
204.400009,428.666656,74.400002,29.15625
202.399994,425.466644,73.599998,29.160156
206.666656,428.800018,74.800003,29.160156
202.399994,428.399994,73.466667,29.15625
205.200012,427.06665,74.26667,29.160156
201.866669,426.933319,72.666672,29.15625
206.933319,427.200012,70.933334,29.15625
202.133331,428.533325,76.400002,29.15625
202.0,426.933319,72.533333,29.160156
202.266678,430.133331,73.066666,29.15625
203.333344,426.666687,74.133331,29.15625
202.133331,430.0,73.066666,29.15625
204.266663,424.933319,73.066666,29.15625
202.933334,431.733337,74.800003,29.15625
204.799988,425.333313,73.599998,29.15625
199.733337,431.199982,77.333328,29.15625
205.599991,425.333313,71.066666,29.15625
202.133331,431.866699,74.666664,29.15625
204.400009,426.133362,73.333336,29.15625
202.399994,432.93335,75.066666,29.15625
204.266663,423.866638,73.066666,29.15625
202.53334,428.399994,75.866669,29.15625
203.866669,425.600006,71.599998,29.15625
204.0,432.133331,77.466667,29.15625
203.600006,425.466644,68.933334,29.15625
201.466675,425.733337,77.733337,29.15625
206.933319,427.466675,68.933334,29.15625
202.0,429.199982,77.466667,29.15625
203.333344,424.533356,70.266663,29.152344
204.799988,425.466644,75.333336,29.152344
201.733337,428.666656,71.466667,29.15625
204.266663,427.06665,76.0,29.15625
202.266678,427.06665,72.266663,29.15625
206.933319,426.266663,72.399994,29.15625
202.666656,429.333344,73.333336,29.15625
204.799988,427.733337,74.26667,29.152344
203.066681,428.666656,72.0,29.15625
203.46666,424.0,75.333336,29.15625
202.666656,433.333313,72.133331,29.15625
203.600006,423.733337,75.866669,29.15625
200.800003,430.0,72.133331,29.152344
205.466675,426.133362,76.400002,29.15625
199.466675,431.866699,73.466667,29.15625
208.799988,426.0,75.066666,29.152344
199.866653,430.800018,73.333336,29.152344
204.0,425.600006,76.533333,29.15625
201.333328,432.0,71.066666,29.15625
205.866669,422.93335,76.0,29.15625
201.466675,434.666687,70.933334,29.15625
204.266663,425.200012,71.866669,29.152344
201.866669,431.866699,75.199997,29.152344
206.399994,423.200012,74.0,29.152344
200.133347,433.866638,75.73333,29.152344
202.133331,424.133331,75.466667,29.152344
204.266663,431.866699,75.73333,29.152344
203.333344,424.0,73.333336,29.152344
202.666656,432.799988,73.333336,29.152344
202.399994,426.0,70.400002,29.152344
204.666672,431.333344,76.533333,29.152344
202.666656,425.066681,72.800003,29.15625
202.0,431.866699,76.266663,29.152344
199.333328,426.799988,71.066666,29.152344
207.333344,429.599976,76.666664,29.152344
201.733337,426.0,71.066666,29.152344
204.799988,430.400024,77.066666,29.152344
199.333328,430.400024,67.466667,29.152344
206.53334,427.599976,79.866669,29.152344
200.666672,426.533325,68.400002,29.152344
206.933319,428.666656,79.733337,29.15625
199.733337,431.199982,69.333336,29.152344
209.466675,426.0,77.466667,29.152344
199.599991,430.666656,70.800003,29.152344
204.799988,425.733337,78.26667,29.152344
200.93335,431.466675,68.400002,29.152344
206.0,424.399994,81.199997,29.148438
200.400009,432.93335,68.933334,29.148438
206.53334,422.266663,79.066666,29.152344
201.866669,432.533325,72.399994,29.152344
208.133331,421.600006,71.866669,29.148438
200.533325,434.399994,75.066666,29.152344
207.333344,421.333344,74.933334,29.152344
202.933334,431.600006,74.533333,29.152344
204.266663,422.799988,72.533333,29.152344
202.399994,434.666687,75.73333,29.152344
204.799988,420.266693,71.599998,29.152344
204.266663,431.06665,78.26667,29.152344
203.199997,425.066681,67.466667,29.152344
202.933334,433.466675,80.133331,29.148438
204.266663,423.066681,64.800003,29.152344
204.133331,427.866669,80.933334,29.152344
202.399994,427.06665,66.266663,29.148438
204.133331,431.333344,80.933334,29.152344
202.800003,424.666687,66.799995,29.152344
206.0,425.733337,81.333328,29.148438
201.866669,431.06665,67.466667,29.148438
205.466675,428.266663,81.199997,29.152344
201.066666,432.93335,67.733337,29.148438
200.533325,422.93335,74.0,29.152344
203.600006,432.93335,72.399994,29.148438
206.399994,422.666656,71.199997,29.148438
202.666656,433.333313,74.133331,29.148438
201.066666,426.133362,67.199997,29.148438
205.066666,430.133331,78.400002,29.148438
202.666656,426.666687,66.0,29.148438
203.600006,431.866699,78.533333,29.152344
202.0,431.733337,68.133331,29.152344
204.133331,426.799988,81.866669,29.152344
203.46666,428.533325,64.533333,29.148438
202.133331,430.666656,81.333328,29.148438
199.333328,431.06665,65.333336,29.148438
207.066666,426.0,82.799995,29.148438
200.400009,431.866699,66.266663,29.148438
205.200012,426.533325,82.533333,29.148438
200.400009,435.733337,70.933334,29.148438
204.400009,420.533325,77.733337,29.148438
204.400009,434.666687,68.800003,29.148438
203.066681,422.533325,82.266663,29.148438
203.600006,433.200012,77.333328,29.144531
203.066681,421.199982,70.0,29.148438
203.733337,434.266663,74.533333,29.148438
202.666656,422.799988,73.599998,29.148438
202.666656,433.866638,78.0,29.148438
203.066681,421.466675,67.733337,29.148438
203.733337,434.666687,78.0,29.148438
202.0,421.733337,72.533333,29.148438
209.199997,424.133331,79.199997,29.148438
198.133331,433.066681,70.400002,29.148438
206.0,421.733337,82.399994,29.148438
200.400009,433.333313,67.066666,29.148438
206.666656,424.533356,81.333328,29.148438
200.400009,430.666656,66.666664,29.148438
207.600006,425.066681,82.666664,29.148438
200.266663,433.200012,66.799995,29.148438
205.333328,422.400024,72.666672,29.148438
197.600006,432.400024,72.533333,29.148438
208.266663,422.799988,77.466667,29.148438
200.266663,433.066681,68.800003,29.148438
203.733337,423.866638,78.0,29.148438
202.53334,431.466675,69.066666,29.144531
204.266663,425.066681,81.466667,29.144531
200.533325,430.0,66.266663,29.144531
203.199997,422.0,75.599998,29.144531
205.333328,432.799988,68.533333,29.144531
204.133331,423.866638,74.666664,29.148438
199.866653,432.133331,70.133331,29.148438
201.866669,423.600006,70.533333,29.148438
203.46666,431.600006,75.199997,29.148438
204.0,424.533356,74.666664,29.148438
202.0,430.533325,71.466667,29.144531
200.666672,424.533356,68.26667,29.148438
205.066666,431.06665,79.199997,29.144531
200.400009,425.866669,71.599998,29.148438
203.866669,430.666656,76.133331,29.144531
198.133331,428.666656,67.600006,29.144531
205.200012,428.0,83.066666,29.148438
201.066666,428.266663,66.266663,29.148438
204.266663,427.466675,79.866669,29.144531
199.466675,431.733337,67.199997,29.144531
206.800003,423.866638,82.399994,29.148438
201.333328,433.333313,68.666672,29.144531
204.133331,425.333313,80.533333,29.144531
198.666672,430.93335,74.800003,29.144531
208.399994,424.133331,77.466667,29.144531
200.666672,432.666656,68.800003,29.144531
201.333328,426.666687,73.066666,29.144531
205.599991,430.533325,81.199997,29.144531
202.133331,426.399994,67.600006,29.144531
206.133331,428.666656,79.866669,29.144531
201.466675,428.93335,69.199997,29.144531
207.066666,426.0,82.533333,29.144531
198.799988,429.733307,68.533333,29.148438
207.733322,427.733337,79.199997,29.144531
200.266663,426.533325,68.400002,29.148438
204.400009,428.93335,81.73333,29.144531
203.066681,426.399994,66.799995,29.144531
201.733337,430.800018,80.0,29.144531
202.666656,425.733337,67.866669,29.144531
203.866669,427.06665,80.800003,29.144531
203.866669,428.800018,65.333336,29.144531
203.066681,428.133301,84.533325,29.144531
202.266678,428.533325,65.066666,29.144531
203.600006,425.733337,79.733337,29.140625
203.733337,430.133331,67.600006,29.144531
203.733337,426.933319,80.400002,29.144531
203.866669,427.599976,67.466667,29.144531
206.133331,424.533356,77.466667,29.144531
201.066666,431.600006,69.199997,29.144531
201.466675,426.533325,82.0,29.144531
204.666672,429.733307,67.333328,29.144531
207.866669,426.399994,76.133331,29.144531
200.800003,431.866699,69.599998,29.144531
205.066666,424.933319,78.0,29.144531
202.266678,432.266663,69.066666,29.144531
205.866669,424.799988,74.533333,29.144531
200.93335,432.133331,72.399994,29.144531
205.599991,424.533356,74.533333,29.144531
202.933334,432.266663,72.666672,29.144531
205.466675,426.533325,69.199997,29.144531
204.266663,430.133331,77.733337,29.144531
202.399994,427.06665,72.533333,29.144531
203.333344,431.06665,73.599998,29.144531
202.666656,425.866669,69.599998,29.144531
203.600006,429.733307,78.533333,29.144531
201.333328,427.06665,70.266663,29.144531
204.933334,428.0,77.199997,29.140625
203.066681,427.599976,66.266663,29.144531
206.399994,427.06665,75.333336,29.144531
198.933334,428.266663,71.466667,29.140625
206.53334,427.733337,78.133331,29.144531
203.199997,427.466675,69.466667,29.140625
205.466675,429.06665,77.333328,29.140625
202.399994,426.933319,69.466667,29.144531
205.066666,427.733337,77.066666,29.140625
202.133331,427.866669,71.866669,29.144531
201.466675,426.533325,71.199997,29.140625
206.133331,428.399994,76.666664,29.144531
200.0,428.533325,74.933334,29.144531
204.533325,429.466675,77.866669,29.140625
201.066666,426.666687,67.866669,29.144531
204.933334,428.133301,77.466667,29.140625
202.133331,429.06665,70.533333,29.144531
202.800003,429.333344,76.933334,29.140625
203.733337,425.333313,70.533333,29.140625
204.799988,429.199982,77.066666,29.144531
201.866669,427.333344,69.599998,29.140625
201.066666,426.933319,76.666664,29.140625
204.266663,429.599976,70.533333,29.140625
202.666656,427.866669,75.066666,29.140625
205.733337,427.06665,72.0,29.140625
203.600006,426.666687,74.400002,29.140625
203.199997,429.333344,71.466667,29.140625
203.066681,428.533325,75.333336,29.140625
204.933334,426.399994,71.599998,29.140625
200.666672,429.466675,76.0,29.140625
206.53334,428.133301,70.266663,29.136719
201.600006,431.466675,75.466667,29.140625
204.133331,426.266663,71.866669,29.140625
203.600006,428.533325,74.400002,29.140625
204.133331,427.733337,73.733337,29.140625
202.933334,431.466675,75.73333,29.140625
204.0,425.600006,72.800003,29.140625
202.53334,429.599976,73.866669,29.140625
205.599991,427.333344,72.800003,29.140625
199.599991,430.533325,78.533333,29.140625
205.866669,426.133362,70.933334,29.140625
205.466675,428.666656,75.333336,29.140625
201.200012,427.599976,73.866669,29.140625
204.266663,429.599976,75.199997,29.140625
201.866669,427.466675,73.466667,29.140625
205.200012,432.533325,76.266663,29.140625
202.53334,424.399994,72.666672,29.140625
206.666656,432.266663,74.400002,29.140625
200.666672,426.533325,76.933334,29.140625
204.933334,430.666656,78.0,29.140625
201.600006,425.066681,73.866669,29.140625
205.200012,430.533325,76.400002,29.140625
201.466675,426.399994,73.866669,29.140625
203.333344,431.466675,76.933334,29.140625
203.333344,424.666687,71.73333,29.140625
202.666656,432.0,77.333328,29.140625
199.466675,425.733337,73.866669,29.140625
200.93335,428.93335,78.800003,29.140625
205.200012,425.466644,70.266663,29.140625
202.399994,432.266663,75.866669,29.140625
204.666672,424.0,72.666672,29.140625
204.933334,428.399994,75.466667,29.140625
203.46666,427.466675,73.066666,29.140625
203.066681,430.266693,76.400002,29.140625
203.199997,424.533356,71.866669,29.140625
200.533325,426.266663,78.0,29.136719
205.200012,428.93335,68.666672,29.136719
202.53334,427.06665,79.599998,29.136719
203.600006,426.133362,70.0,29.140625
203.733337,425.466644,74.800003,29.136719
204.933334,430.400024,72.399994,29.140625
202.133331,426.933319,75.866669,29.136719
204.0,427.466675,68.933334,29.136719
201.333328,424.533356,73.466667,29.136719
207.199997,432.799988,71.599998,29.136719
202.53334,424.799988,76.666664,29.136719
202.800003,431.600006,69.333336,29.140625
202.933334,422.799988,72.666672,29.136719
204.133331,434.266663,74.666664,29.136719
202.933334,423.466675,73.599998,29.136719
203.333344,433.200012,70.933334,29.136719
204.0,421.466675,72.666672,29.136719
203.733337,435.333313,75.866669,29.136719
202.266678,422.666656,72.266663,29.140625
202.933334,432.400024,73.466667,29.136719
208.0,423.733337,69.599998,29.140625
201.066666,434.666687,75.73333,29.140625
205.200012,421.466675,74.533333,29.136719
200.666672,435.600006,73.599998,29.136719
203.733337,425.200012,72.399994,29.136719
203.199997,433.200012,77.199997,29.136719
204.933334,422.0,71.066666,29.136719
207.199997,425.200012,76.533333,29.140625
199.599991,431.06665,70.800003,29.136719
209.06665,423.866638,75.599998,29.140625
201.200012,434.0,70.666664,29.136719
205.866669,422.0,77.333328,29.136719
202.800003,433.866638,78.533333,29.136719
203.46666,420.400024,70.933334,29.132812
202.133331,435.066681,74.400002,29.136719
204.666672,420.666656,72.533333,29.136719
201.066666,431.600006,80.266663,29.136719
206.53334,420.666656,69.199997,29.136719
200.93335,434.133331,79.599998,29.136719
204.133331,420.666656,72.266663,29.136719
203.866669,431.199982,79.733337,29.136719
203.600006,424.399994,69.866669,29.136719
201.466675,432.266663,76.400002,29.136719
205.200012,422.266663,74.666664,29.136719
207.066666,430.0,78.800003,29.136719
200.800003,422.666656,74.26667,29.136719
204.400009,432.799988,70.933334,29.136719
202.53334,422.533325,79.866669,29.132812
204.133331,434.266663,77.199997,29.136719
202.666656,422.533325,71.333328,29.136719
203.733337,432.400024,76.266663,29.136719
202.133331,424.0,73.200005,29.136719
204.533325,432.266663,81.199997,29.136719
200.800003,426.266663,66.533333,29.136719
207.733322,430.666656,78.533333,29.136719
200.0,423.866638,72.399994,29.136719
208.933334,429.06665,81.73333,29.136719
200.266663,429.333344,66.133331,29.136719
204.933334,429.866669,82.133331,29.136719
199.06665,424.399994,67.600006,29.136719
207.199997,428.93335,84.0,29.136719
200.533325,426.266663,65.73333,29.136719
206.399994,430.800018,83.199997,29.136719
201.200012,424.533356,66.400002,29.136719
205.066666,425.333313,84.933327,29.136719
199.599991,431.733337,65.866669,29.136719
205.599991,429.333344,83.73333,29.136719
200.800003,427.866669,66.266663,29.136719
204.533325,425.200012,82.533333,29.136719
202.933334,430.400024,66.533333,29.136719
206.0,427.599976,83.333328,29.136719
201.333328,428.666656,64.0,29.136719
202.133331,422.266663,81.599998,29.132812
204.533325,432.400024,65.599998,29.136719
203.733337,424.533356,84.933327,29.136719
202.133331,431.06665,63.200001,29.132812
204.266663,419.466675,77.733337,29.136719
202.666656,433.466675,70.533333,29.136719
204.666672,423.733337,81.466667,29.136719
202.666656,431.466675,67.333328,29.132812
203.066681,420.666656,72.533333,29.136719
203.333344,434.666687,70.133331,29.132812
201.733337,423.466675,79.466667,29.132812
205.333328,433.200012,65.866669,29.132812
202.399994,420.93335,69.599998,29.136719
204.266663,434.933319,75.73333,29.136719
203.733337,420.666656,75.866669,29.132812
202.133331,434.266663,70.800003,29.136719
204.666672,420.133331,70.666664,29.136719
200.533325,434.533356,73.466667,29.136719
205.333328,419.599976,73.466667,29.136719
200.533325,433.600006,73.333336,29.136719
207.333344,422.799988,68.933334,29.136719
198.133331,432.666656,75.066666,29.136719
206.399994,421.06665,74.800003,29.136719
201.200012,435.333313,73.066666,29.132812
202.933334,424.933319,68.533333,29.136719
202.933334,432.533325,78.0,29.136719
203.600006,421.866699,71.466667,29.136719
202.266678,434.0,75.066666,29.136719
203.066681,425.866669,69.199997,29.136719
202.266678,431.333344,80.400002,29.132812
206.53334,425.066681,65.866669,29.132812
201.333328,432.799988,76.400002,29.132812
200.666672,428.133301,66.799995,29.132812
204.533325,429.466675,79.466667,29.132812
202.53334,425.466644,68.533333,29.136719
202.399994,430.400024,74.133331,29.136719
201.733337,429.466675,69.466667,29.132812
205.599991,431.866699,75.73333,29.132812
200.800003,422.266663,74.400002,29.132812
204.0,432.799988,70.0,29.136719
203.46666,423.066681,67.066666,29.132812
202.933334,434.266663,77.466667,29.132812
203.733337,422.266663,70.400002,29.136719
204.666672,433.333313,76.799995,29.132812
203.199997,425.066681,65.199997,29.132812
202.933334,432.93335,78.800003,29.132812
203.199997,424.266663,66.799995,29.132812
205.066666,432.266663,78.133331,29.136719
205.333328,426.533325,65.199997,29.132812
203.46666,431.06665,79.199997,29.132812
203.866669,424.399994,67.066666,29.136719
204.799988,432.133331,80.400002,29.136719
202.133331,429.333344,66.666664,29.132812
204.133331,429.199982,81.466667,29.132812
202.399994,426.133362,67.733337,29.132812
202.399994,430.266693,82.533333,29.136719
202.133331,429.199982,68.666672,29.132812
203.46666,427.733337,82.133331,29.136719
202.666656,429.06665,67.199997,29.132812
203.866669,429.466675,81.599998,29.132812
200.800003,432.0,67.733337,29.132812
204.666672,425.333313,80.533333,29.132812
202.933334,430.666656,67.600006,29.132812
204.133331,427.466675,80.533333,29.132812
202.53334,432.0,71.866669,29.132812
203.733337,425.333313,78.933334,29.132812
205.599991,431.466675,66.666664,29.132812
204.666672,426.933319,80.133331,29.132812
202.53334,431.733337,74.0,29.132812
204.799988,423.066681,77.199997,29.132812
203.199997,432.133331,70.533333,29.132812
203.46666,426.0,78.400002,29.132812
203.46666,431.866699,77.199997,29.132812
200.400009,426.399994,74.0,29.132812
206.266663,430.0,72.0,29.132812
201.333328,427.06665,76.533333,29.132812
206.53334,429.06665,79.333336,29.132812
201.733337,428.666656,69.466667,29.132812
206.266663,426.533325,79.066666,29.132812
202.666656,429.866669,70.933334,29.132812
205.733337,427.200012,79.199997,29.132812
201.466675,429.733307,67.733337,29.132812
208.0,426.533325,76.266663,29.132812
199.866653,429.06665,72.266663,29.132812
208.133331,426.933319,78.400002,29.132812
201.733337,429.466675,68.933334,29.132812
204.666672,426.666687,77.866669,29.132812
201.466675,430.0,70.133331,29.132812
204.933334,428.93335,78.800003,29.132812
202.666656,428.399994,69.199997,29.132812
205.599991,427.733337,77.733337,29.132812
199.733337,429.466675,73.466667,29.132812
207.066666,426.399994,72.800003,29.132812
198.399994,429.866669,77.733337,29.128906
205.066666,426.133362,74.400002,29.128906
202.933334,431.199982,74.26667,29.132812
204.400009,428.666656,72.399994,29.128906
200.800003,428.266663,74.800003,29.128906
205.200012,428.0,74.26667,29.132812
200.93335,431.06665,74.933334,29.132812
205.066666,427.06665,72.399994,29.132812
200.93335,426.666687,77.333328,29.132812
207.333344,428.0,70.400002,29.128906
201.466675,428.399994,74.800003,29.128906
203.199997,430.0,72.800003,29.132812
203.199997,427.200012,77.333328,29.128906
204.666672,426.799988,69.866669,29.128906
201.733337,428.133301,76.666664,29.132812
204.799988,429.866669,71.199997,29.132812
200.93335,427.599976,78.933334,29.128906
206.266663,428.266663,68.666672,29.128906
200.133347,427.599976,78.933334,29.132812
202.399994,429.06665,72.0,29.132812
203.866669,426.133362,74.800003,29.128906
202.53334,429.06665,72.399994,29.128906
203.866669,427.06665,76.133331,29.132812
201.600006,429.466675,74.666664,29.128906
203.066681,430.133331,75.333336,29.128906
205.333328,427.599976,70.400002,29.128906
202.933334,430.400024,78.533333,29.132812
206.0,429.466675,73.466667,29.128906
202.933334,428.533325,75.866669,29.132812
204.400009,427.866669,74.0,29.132812
203.066681,431.866699,75.73333,29.128906
202.399994,428.533325,74.933334,29.128906
202.933334,428.93335,74.800003,29.128906
204.666672,425.333313,74.133331,29.128906
203.199997,431.06665,76.133331,29.128906
204.533325,427.06665,75.199997,29.128906
203.066681,428.133301,72.133331,29.128906
203.600006,428.533325,75.199997,29.128906
203.866669,430.133331,75.199997,29.128906
202.399994,428.666656,75.066666,29.128906
204.933334,426.0,73.599998,29.128906
203.600006,428.800018,74.533333,29.128906
203.199997,428.399994,74.800003,29.128906
202.800003,429.06665,76.533333,29.128906
204.0,426.799988,72.266663,29.128906
203.199997,427.599976,75.466667,29.128906
201.866669,427.466675,74.666664,29.128906
201.333328,428.93335,72.666672,29.128906
204.933334,425.600006,74.0,29.128906
203.066681,429.599976,73.333336,29.128906
204.400009,425.333313,74.26667,29.128906
202.266678,426.933319,71.466667,29.128906
205.599991,427.866669,74.800003,29.125
199.866653,427.866669,74.666664,29.128906
206.800003,426.799988,71.599998,29.128906
202.53334,429.866669,72.666672,29.128906
205.333328,425.866669,74.400002,29.128906
202.266678,432.400024,73.200005,29.128906
204.266663,423.866638,74.400002,29.128906
202.399994,430.400024,73.066666,29.128906
204.933334,425.866669,73.200005,29.128906
201.600006,430.93335,72.133331,29.128906
207.333344,425.466644,72.399994,29.128906
204.133331,432.133331,71.199997,29.128906
201.466675,426.0,76.666664,29.128906
202.800003,430.400024,69.199997,29.128906
203.199997,426.799988,76.933334,29.128906
206.0,431.733337,74.400002,29.128906
200.93335,425.866669,75.333336,29.128906
203.199997,430.800018,69.866669,29.128906
203.199997,425.733337,76.266663,29.128906
207.199997,432.799988,73.466667,29.128906
199.199997,423.733337,76.400002,29.128906
205.599991,432.533325,71.599998,29.128906
203.733337,425.600006,74.800003,29.128906
204.266663,433.866638,76.533333,29.128906
201.600006,422.266663,73.066666,29.128906
204.666672,433.466675,74.26667,29.125
202.800003,424.666687,73.466667,29.128906
204.266663,432.666656,78.533333,29.128906
200.666672,423.333313,71.866669,29.128906
207.733322,433.200012,74.933334,29.128906
199.599991,423.866638,74.933334,29.128906
205.866669,431.866699,79.466667,29.125
200.800003,425.066681,69.599998,29.128906
206.133331,430.400024,79.599998,29.125
201.200012,427.333344,69.866669,29.128906
206.133331,428.399994,79.866669,29.128906
202.0,426.0,67.466667,29.125
209.199997,429.199982,77.866669,29.125
198.933334,425.466644,71.199997,29.128906
205.333328,426.933319,82.266663,29.125
202.0,428.800018,67.466667,29.128906
207.066666,427.200012,79.066666,29.128906
199.06665,427.599976,67.466667,29.125
205.066666,425.733337,78.666672,29.128906
202.133331,431.199982,68.800003,29.128906
204.133331,427.06665,79.733337,29.128906
198.666672,431.199982,69.866669,29.128906
202.399994,424.933319,78.26667,29.125
201.466675,433.333313,71.066666,29.128906
205.866669,423.733337,76.133331,29.128906
201.466675,434.0,71.199997,29.128906
202.933334,425.066681,72.0,29.125
203.733337,432.0,76.533333,29.128906
204.799988,422.93335,71.066666,29.128906
202.133331,434.533356,73.866669,29.125
202.399994,425.333313,70.933334,29.125
202.266678,432.400024,76.933334,29.125
203.866669,423.200012,73.733337,29.128906
201.200012,432.93335,75.199997,29.125
200.400009,426.0,67.866669,29.125
204.0,431.333344,78.133331,29.125
202.133331,425.466644,70.800003,29.125
202.666656,431.06665,74.666664,29.125
200.666672,424.0,66.799995,29.125
207.733322,431.466675,77.466667,29.125
201.200012,425.866669,70.800003,29.125
204.266663,431.06665,77.600006,29.125
201.333328,426.533325,66.0,29.125
205.866669,432.533325,81.333328,29.125
201.333328,422.133331,68.26667,29.125
206.0,432.666656,77.866669,29.125
201.466675,425.733337,64.666664,29.128906
206.0,431.199982,81.866669,29.125
198.933334,427.599976,67.866669,29.125
208.799988,429.333344,79.599998,29.125
202.666656,429.06665,62.266663,29.125
203.733337,431.199982,82.799995,29.125
202.666656,422.93335,65.866669,29.125
205.200012,432.93335,81.199997,29.125
200.533325,430.93335,65.866669,29.125
202.53334,428.93335,82.799995,29.125
202.399994,427.06665,65.599998,29.125
202.800003,432.666656,82.399994,29.125
203.600006,432.533325,64.933334,29.125
202.133331,426.0,86.133339,29.125
202.0,429.733307,64.800003,29.125
204.666672,430.0,83.066666,29.125
202.399994,434.799988,68.400002,29.125
204.666672,423.466675,81.599998,29.125
202.133331,431.333344,65.066666,29.125
205.333328,427.200012,83.599998,29.125
206.133331,434.266663,70.800003,29.125
200.666672,421.600006,80.266663,29.125
205.866669,433.466675,66.799995,29.125
204.400009,424.533356,82.266663,29.125
204.133331,435.333313,72.933334,29.125
203.46666,418.666656,76.133331,29.125
202.133331,435.333313,69.333336,29.121094
204.0,422.666656,79.733337,29.125
202.0,435.466644,75.199997,29.125
203.600006,421.600006,71.199997,29.125
202.666656,433.600006,73.333336,29.125
202.800003,421.733337,79.066666,29.125
201.200012,433.333313,74.0,29.121094
205.866669,419.733307,72.933334,29.125
200.266663,434.533356,71.333328,29.125
206.0,420.266693,77.066666,29.125
201.866669,433.066681,76.933334,29.121094
205.200012,421.600006,72.266663,29.125
200.133347,433.866638,72.133331,29.125
207.066666,421.333344,72.266663,29.125
201.866669,432.533325,73.866669,29.125
204.266663,423.466675,71.066666,29.121094
200.666672,431.733337,72.266663,29.121094
205.466675,422.799988,78.400002,29.125
204.799988,431.866699,74.0,29.125
204.0,424.266663,74.400002,29.121094
202.266678,431.466675,72.533333,29.121094
206.0,423.866638,74.26667,29.125
206.666656,430.533325,76.0,29.125
202.666656,424.933319,70.533333,29.121094
202.53334,431.866699,76.533333,29.121094
203.866669,425.066681,69.466667,29.121094
206.133331,430.800018,81.199997,29.125
199.733337,428.93335,67.333328,29.125
204.400009,428.93335,80.266663,29.121094
202.666656,426.666687,69.866669,29.121094
206.133331,427.06665,80.666664,29.125
199.06665,427.866669,69.599998,29.125
205.866669,429.733307,76.533333,29.125
202.0,426.266663,71.333328,29.121094
206.666656,428.266663,82.533333,29.121094
199.06665,430.533325,66.133331,29.121094
207.066666,426.0,80.533333,29.125
202.133331,431.06665,67.066666,29.121094
201.866669,426.266663,68.666672,29.121094
204.533325,430.800018,75.73333,29.125
200.133347,424.799988,74.133331,29.121094
203.333344,431.333344,71.466667,29.121094
202.0,428.133301,67.333328,29.121094
205.333328,430.0,78.26667,29.125
201.600006,427.599976,69.599998,29.121094
203.866669,429.199982,76.133331,29.121094
202.133331,428.399994,66.533333,29.121094
205.466675,429.466675,80.533333,29.121094
201.466675,428.399994,68.533333,29.121094
206.53334,428.666656,77.066666,29.125
199.06665,429.599976,66.933334,29.121094
208.266663,427.866669,80.400002,29.121094
200.666672,430.400024,67.600006,29.121094
204.666672,427.200012,80.133331,29.117188
202.266678,428.266663,65.866669,29.121094
203.600006,430.266693,81.73333,29.121094
202.399994,425.733337,67.066666,29.121094
205.333328,430.133331,80.0,29.121094
205.599991,429.466675,64.133331,29.121094
200.533325,427.466675,82.933334,29.121094
204.533325,427.599976,64.26667,29.121094
203.333344,430.266693,81.466667,29.121094
202.266678,430.133331,67.733337,29.121094
204.266663,426.266663,79.733337,29.121094
203.066681,428.533325,68.800003,29.121094
202.666656,428.93335,78.533333,29.121094
200.800003,429.733307,68.400002,29.121094
206.53334,428.133301,75.599998,29.121094
200.0,427.466675,74.666664,29.121094
204.400009,429.06665,71.73333,29.121094
202.0,426.0,68.666672,29.121094
204.400009,428.533325,78.0,29.121094
202.133331,426.666687,70.533333,29.125
205.200012,428.266663,76.400002,29.125
202.800003,426.0,68.0,29.121094
204.533325,429.733307,78.26667,29.121094
202.133331,426.533325,70.266663,29.121094
206.800003,429.866669,75.599998,29.121094
203.733337,427.733337,65.73333,29.121094
202.933334,429.733307,78.533333,29.117188
203.866669,425.733337,70.666664,29.121094
202.399994,431.600006,77.199997,29.121094
204.266663,429.06665,69.333336,29.121094
202.266678,427.06665,76.933334,29.121094
205.200012,426.666687,70.800003,29.121094
198.933334,428.800018,78.800003,29.121094
204.933334,428.666656,70.800003,29.121094
201.200012,427.333344,77.733337,29.121094
204.266663,428.399994,71.466667,29.121094
201.866669,427.466675,76.0,29.121094
201.200012,429.733307,71.333328,29.121094
203.333344,426.0,76.266663,29.121094
202.53334,430.266693,73.866669,29.121094
203.46666,426.666687,74.400002,29.121094
200.266663,427.866669,72.933334,29.121094
206.666656,427.599976,73.466667,29.117188
199.599991,428.266663,75.73333,29.121094
204.666672,426.399994,74.800003,29.121094
202.800003,426.266663,70.933334,29.121094
203.866669,427.866669,75.866669,29.121094
200.93335,427.466675,73.066666,29.121094
203.600006,427.866669,74.933334,29.121094
204.133331,425.466644,70.933334,29.121094
201.866669,427.200012,78.933334,29.121094
202.800003,428.133301,71.333328,29.121094
202.800003,427.599976,76.666664,29.121094
204.533325,428.93335,73.066666,29.121094
202.800003,428.0,76.0,29.117188
205.333328,426.533325,71.599998,29.121094
203.199997,428.93335,76.533333,29.121094
206.133331,427.06665,72.0,29.121094
203.066681,429.466675,74.800003,29.121094
204.533325,426.533325,70.0,29.121094
204.400009,427.599976,76.266663,29.121094
206.933319,427.599976,69.466667,29.117188
202.399994,430.800018,74.800003,29.121094
204.133331,425.600006,72.0,29.121094
203.46666,430.533325,75.199997,29.121094
203.866669,427.200012,72.399994,29.121094
202.266678,431.733337,75.333336,29.121094
204.0,425.066681,72.933334,29.121094
203.600006,431.466675,75.333336,29.117188
205.866669,425.466644,71.466667,29.121094
200.266663,430.0,75.066666,29.121094
203.066681,427.06665,73.200005,29.121094
202.399994,430.133331,72.800003,29.121094
204.400009,428.133301,74.26667,29.121094
203.199997,431.199982,75.199997,29.121094
204.666672,425.733337,73.866669,29.117188
202.933334,433.466675,76.400002,29.121094
205.466675,426.933319,72.266663,29.121094
199.466675,430.93335,79.199997,29.117188
201.066666,426.666687,70.933334,29.121094
207.333344,429.866669,75.066666,29.121094
203.866669,426.133362,71.333328,29.117188
204.0,429.333344,76.799995,29.117188
201.733337,425.200012,70.533333,29.117188
204.0,431.466675,78.0,29.117188
205.599991,429.466675,71.466667,29.117188
203.199997,427.333344,77.066666,29.121094
201.466675,433.066681,78.0,29.121094
205.466675,424.266663,70.800003,29.121094
204.933334,431.333344,76.0,29.117188
204.0,425.333313,73.333336,29.117188
202.133331,433.200012,75.599998,29.121094
204.533325,423.600006,73.599998,29.121094
204.0,429.466675,76.933334,29.117188
204.0,426.0,71.866669,29.117188
203.733337,432.133331,77.600006,29.117188
204.799988,424.266663,69.733337,29.117188
201.600006,428.533325,78.533333,29.117188
202.933334,427.06665,70.133331,29.117188
203.600006,430.93335,78.533333,29.117188
203.066681,424.933319,70.133331,29.121094
205.333328,426.0,77.333328,29.117188
202.399994,429.06665,71.599998,29.117188
202.800003,428.800018,78.666672,29.117188
202.399994,427.06665,68.933334,29.117188
200.400009,424.533356,78.26667,29.117188
201.733337,431.866699,81.466667,29.117188
205.200012,424.0,68.933334,29.117188
203.066681,435.066681,77.866669,29.121094
202.800003,426.799988,70.400002,29.117188
203.733337,431.333344,78.800003,29.117188
204.0,424.266663,71.066666,29.117188
201.600006,433.066681,76.133331,29.117188
203.600006,428.0,70.666664,29.117188
202.0,430.666656,78.0,29.117188
206.0,425.466644,67.466667,29.117188
201.200012,432.133331,79.199997,29.117188
201.066666,428.0,67.733337,29.117188
205.733337,428.800018,78.400002,29.117188
201.866669,427.866669,69.466667,29.117188
204.266663,431.06665,79.333336,29.117188
200.93335,432.799988,69.733337,29.117188
205.200012,424.799988,78.133331,29.117188
205.333328,430.666656,65.866669,29.117188
202.800003,426.933319,82.266663,29.117188
202.933334,434.933319,71.866669,29.117188
204.0,422.799988,78.400002,29.117188
204.400009,431.866699,72.0,29.117188
202.933334,425.200012,78.800003,29.117188
205.200012,434.666687,75.73333,29.117188
202.0,423.466675,72.800003,29.117188
204.400009,431.733337,74.26667,29.121094
200.800003,423.200012,79.066666,29.113281
205.733337,433.600006,76.933334,29.117188
199.466675,423.200012,73.866669,29.117188
205.466675,433.066681,75.599998,29.117188
201.600006,423.200012,75.599998,29.117188
203.733337,435.466644,78.0,29.117188
202.933334,420.133331,72.133331,29.117188
204.0,435.733337,75.066666,29.121094
203.600006,421.600006,73.333336,29.117188
204.266663,432.93335,82.533333,29.117188
200.800003,424.0,67.199997,29.117188
204.133331,434.533356,78.0,29.117188
202.800003,421.600006,72.533333,29.117188
203.066681,433.466675,78.800003,29.117188
202.666656,422.799988,68.933334,29.117188
201.200012,434.933319,76.666664,29.117188
204.400009,420.400024,70.800003,29.117188
204.666672,431.733337,80.533333,29.117188
203.866669,425.066681,64.26667,29.117188
203.46666,432.93335,82.933334,29.117188
202.0,424.133331,66.799995,29.117188
206.0,429.199982,82.399994,29.117188
203.066681,427.06665,65.599998,29.117188
206.0,430.800018,83.333328,29.117188
200.93335,427.466675,66.133331,29.117188
204.266663,426.0,81.599998,29.117188
202.0,429.866669,66.133331,29.117188
206.666656,425.466644,83.333328,29.117188
197.333344,431.733337,67.733337,29.117188
204.533325,422.533325,80.800003,29.117188
202.933334,432.133331,69.066666,29.113281
206.399994,423.866638,79.466667,29.117188
200.266663,431.466675,68.0,29.117188
204.266663,422.266663,77.333328,29.117188
201.866669,432.666656,68.933334,29.113281
204.799988,424.799988,81.599998,29.117188
202.800003,431.466675,63.600002,29.117188
203.066681,420.666656,77.733337,29.117188
204.799988,434.0,68.26667,29.113281
204.933334,423.600006,82.533333,29.113281
202.133331,432.133331,67.333328,29.117188
204.133331,420.133331,74.0,29.117188
203.733337,434.933319,71.199997,29.117188
205.200012,420.93335,79.199997,29.117188
203.333344,433.333313,69.866669,29.117188
206.666656,420.400024,72.266663,29.113281
202.53334,434.266663,74.400002,29.113281
204.133331,421.466675,77.066666,29.117188
202.399994,434.399994,70.266663,29.117188
203.733337,420.400024,70.666664,29.113281
203.733337,435.466644,76.533333,29.113281
204.133331,419.466675,74.666664,29.113281
202.666656,435.466644,72.800003,29.113281
205.333328,422.400024,67.466667,29.113281
204.133331,433.200012,80.800003,29.113281
201.466675,423.066681,67.199997,29.113281
206.399994,433.733337,75.333336,29.113281
200.93335,427.866669,65.199997,29.113281
207.199997,430.133331,83.73333,29.117188
200.266663,433.333313,66.133331,29.117188
206.53334,424.933319,82.533333,29.113281
200.666672,431.06665,66.933334,29.117188
207.46666,424.933319,81.199997,29.117188
197.733322,433.066681,70.533333,29.113281
207.733322,426.799988,80.533333,29.113281
200.266663,433.200012,66.933334,29.113281
206.933319,424.666687,82.0,29.117188
200.93335,433.466675,68.133331,29.113281
207.333344,422.400024,80.800003,29.113281
202.666656,431.733337,70.0,29.113281
205.866669,423.866638,78.666672,29.117188
199.733337,433.466675,70.933334,29.113281
207.199997,421.466675,78.666672,29.113281
201.866669,432.266663,73.333336,29.113281
206.399994,423.200012,74.666664,29.117188
202.0,433.066681,73.066666,29.113281
206.133331,421.600006,74.800003,29.113281
203.866669,430.666656,75.466667,29.117188
203.866669,424.666687,74.800003,29.113281
202.53334,432.400024,73.466667,29.113281
205.466675,424.133331,77.733337,29.113281
206.933319,431.866699,74.533333,29.113281
202.933334,424.533356,72.533333,29.113281
202.666656,431.733337,70.933334,29.113281
204.0,425.333313,74.933334,29.117188
207.199997,430.133331,79.866669,29.113281
201.866669,427.599976,68.933334,29.113281
204.666672,429.733307,78.400002,29.113281
202.266678,425.066681,71.199997,29.113281
205.599991,431.06665,80.933334,29.113281
199.06665,426.799988,70.533333,29.113281
205.466675,430.266693,76.666664,29.113281
203.066681,426.133362,69.733337,29.113281
208.266663,427.200012,82.533333,29.113281
200.266663,428.133301,65.73333,29.113281
204.933334,427.466675,81.333328,29.113281
200.533325,427.866669,68.800003,29.113281
205.733337,428.666656,83.199997,29.113281
200.800003,429.599976,66.933334,29.113281
206.800003,426.399994,82.533333,29.113281
197.866669,427.733337,70.133331,29.113281
204.533325,428.666656,85.200005,29.113281
201.600006,427.333344,65.599998,29.113281
204.533325,429.733307,81.73333,29.113281
199.866653,428.800018,67.466667,29.113281
205.200012,428.0,82.666664,29.113281
201.066666,429.06665,66.133331,29.109375
205.066666,429.599976,82.399994,29.113281
201.600006,426.533325,67.066666,29.113281
204.266663,426.533325,84.0,29.113281
203.866669,428.800018,64.26667,29.109375
205.066666,428.133301,84.666664,29.113281
205.599991,425.600006,65.73333,29.113281
204.133331,425.466644,80.266663,29.113281
201.333328,429.599976,68.0,29.113281
203.866669,428.399994,80.666664,29.113281
203.866669,427.200012,67.199997,29.113281
204.400009,424.799988,79.066666,29.113281
205.866669,431.199982,66.666664,29.113281
202.133331,426.266663,83.066666,29.109375
205.466675,428.399994,65.199997,29.113281
204.133331,424.666687,77.333328,29.113281
203.199997,432.0,68.400002,29.109375
204.400009,425.200012,79.733337,29.113281
203.733337,429.599976,68.666672,29.113281
204.133331,424.399994,75.199997,29.113281
202.133331,432.533325,72.0,29.113281
202.266678,425.200012,78.400002,29.113281
204.0,430.666656,67.333328,29.113281
205.066666,424.666687,74.533333,29.113281
202.399994,432.666656,73.333336,29.113281
204.0,425.866669,76.400002,29.113281
204.133331,430.666656,72.933334,29.113281
205.200012,423.066681,72.0,29.109375
203.199997,431.466675,76.133331,29.109375
203.866669,426.933319,72.399994,29.113281
205.066666,430.266693,71.599998,29.113281
207.199997,427.200012,70.800003,29.113281
199.333328,429.466675,75.199997,29.109375
205.866669,425.333313,74.533333,29.109375
202.53334,431.866699,72.666672,29.113281
205.599991,427.866669,72.399994,29.113281
201.066666,430.133331,75.73333,29.109375
204.666672,426.0,72.266663,29.113281
202.133331,431.733337,75.866669,29.109375
206.53334,428.133301,70.400002,29.113281
200.800003,428.399994,78.666672,29.113281
206.266663,427.466675,69.199997,29.113281
202.0,430.533325,75.599998,29.113281
204.133331,430.133331,73.066666,29.113281
202.266678,426.533325,74.666664,29.109375
205.333328,429.866669,74.0,29.113281
200.800003,427.599976,74.0,29.113281
201.600006,430.266693,72.933334,29.109375
204.133331,427.333344,71.866669,29.109375
204.533325,429.599976,74.533333,29.109375
205.599991,429.466675,76.666664,29.109375
202.800003,427.466675,71.466667,29.109375
203.333344,431.06665,75.73333,29.109375
201.866669,427.333344,71.199997,29.109375
205.333328,429.866669,76.666664,29.113281
204.400009,427.466675,72.800003,29.109375
202.399994,432.0,76.0,29.113281
202.933334,427.866669,70.266663,29.109375
207.066666,430.533325,75.333336,29.109375
205.866669,427.466675,71.066666,29.109375
202.399994,431.600006,76.400002,29.109375
203.600006,425.866669,72.533333,29.109375
203.866669,432.0,76.666664,29.109375
204.133331,426.266663,74.133331,29.109375
202.933334,431.733337,75.866669,29.109375
202.933334,425.733337,74.0,29.109375
204.799988,430.93335,77.066666,29.109375
206.399994,427.599976,72.666672,29.113281
199.599991,430.266693,78.133331,29.109375
204.933334,425.066681,71.599998,29.109375
202.133331,432.533325,76.266663,29.109375
203.333344,428.0,74.133331,29.109375
203.733337,429.466675,74.666664,29.109375
205.066666,426.0,73.200005,29.109375
201.733337,431.333344,78.800003,29.109375
201.333328,426.799988,76.266663,29.109375
204.666672,429.866669,73.599998,29.113281
203.46666,426.133362,76.133331,29.109375
202.800003,429.733307,74.533333,29.109375
201.866669,425.733337,72.933334,29.113281
205.466675,431.466675,75.866669,29.109375
201.733337,427.466675,74.0,29.109375
205.200012,430.266693,75.066666,29.109375
202.133331,423.733337,71.866669,29.109375
205.866669,432.0,76.933334,29.109375
200.533325,425.600006,75.066666,29.109375
207.199997,432.266663,72.666672,29.109375
202.53334,425.066681,71.066666,29.109375
205.200012,431.466675,77.199997,29.109375
201.333328,426.0,72.0,29.109375
205.466675,429.06665,76.533333,29.109375
201.333328,427.06665,70.133331,29.109375
206.399994,427.599976,76.266663,29.109375
199.866653,428.266663,74.26667,29.109375
206.53334,427.333344,74.666664,29.109375
200.400009,433.066681,76.133331,29.109375
204.666672,423.200012,74.533333,29.109375
203.066681,433.733337,72.933334,29.109375
204.133331,423.733337,75.199997,29.109375
201.733337,431.866699,73.733337,29.109375
204.400009,423.066681,74.666664,29.109375
202.53334,434.666687,73.333336,29.109375
203.733337,423.200012,73.333336,29.109375
200.800003,433.066681,79.733337,29.109375
205.866669,424.0,70.266663,29.109375
200.93335,433.866638,73.333336,29.109375
205.333328,421.600006,74.533333,29.109375
202.933334,430.533325,76.266663,29.109375
203.866669,423.866638,72.666672,29.109375
201.866669,433.466675,74.26667,29.109375
204.0,422.266663,74.26667,29.109375
202.800003,431.600006,78.400002,29.109375
203.600006,425.466644,66.0,29.109375
205.333328,431.333344,82.266663,29.109375
201.866669,424.266663,69.466667,29.109375
202.666656,428.533325,79.599998,29.109375
202.933334,426.799988,68.26667,29.109375
202.933334,431.866699,80.133331,29.109375
202.133331,424.933319,68.0,29.109375
204.400009,424.933319,79.733337,29.109375
204.133331,429.199982,65.73333,29.109375
204.0,428.533325,84.0,29.109375
200.533325,427.866669,65.333336,29.109375
204.933334,424.266663,79.199997,29.109375
203.066681,430.400024,67.600006,29.105469
204.266663,427.200012,80.0,29.109375
203.333344,427.599976,67.199997,29.109375
203.46666,422.666656,77.733337,29.109375
203.199997,432.533325,69.066666,29.109375
203.066681,425.466644,79.066666,29.109375
203.199997,431.600006,65.866669,29.109375
202.266678,422.266663,75.866669,29.109375
203.733337,433.866638,72.399994,29.109375
203.199997,424.0,77.199997,29.109375
203.333344,431.600006,69.866669,29.109375
200.93335,423.333313,70.666664,29.109375
205.599991,432.133331,76.400002,29.109375
202.666656,424.799988,71.599998,29.109375
203.199997,431.466675,73.466667,29.109375
199.333328,424.666687,70.266663,29.109375
206.800003,432.400024,76.400002,29.109375
201.200012,424.533356,71.599998,29.109375
205.733337,431.733337,75.333336,29.109375
201.333328,423.866638,66.933334,29.109375
206.53334,432.0,79.866669,29.109375
201.066666,426.533325,68.533333,29.109375
204.0,431.466675,77.733337,29.105469
202.399994,424.399994,65.73333,29.109375
207.333344,432.0,80.533333,29.109375
199.733337,423.333313,68.666672,29.109375
204.799988,434.0,76.133331,29.109375
203.46666,423.466675,68.133331,29.109375
201.733337,434.266663,78.666672,29.109375
203.333344,421.466675,68.0,29.109375
203.866669,434.933319,77.733337,29.109375
202.666656,427.200012,65.73333,29.105469
202.0,432.133331,80.800003,29.109375
206.266663,422.666656,69.333336,29.109375
201.200012,434.0,80.400002,29.105469
201.466675,428.533325,66.799995,29.109375
203.46666,430.533325,79.066666,29.109375
202.266678,423.466675,70.133331,29.109375
202.933334,432.93335,75.066666,29.109375
201.200012,425.733337,67.333328,29.109375
205.066666,431.600006,76.799995,29.105469
202.933334,424.533356,71.466667,29.109375
202.133331,433.200012,74.533333,29.109375
198.666672,424.933319,68.666672,29.109375
206.266663,433.600006,75.73333,29.109375
201.466675,423.600006,70.0,29.109375
204.533325,430.533325,75.066666,29.109375
200.666672,425.066681,65.466667,29.109375
207.066666,431.600006,81.466667,29.105469
200.93335,426.933319,65.73333,29.109375
205.066666,431.06665,78.26667,29.105469
201.333328,427.200012,62.933334,29.109375
205.066666,432.93335,82.133331,29.105469
203.066681,421.866699,67.600006,29.109375
204.533325,435.200012,76.533333,29.109375
202.933334,425.066681,65.73333,29.109375
203.333344,434.133331,80.666664,29.109375
198.399994,434.266663,66.799995,29.109375
206.266663,424.266663,80.666664,29.109375
201.733337,432.799988,69.466667,29.109375
207.866669,422.533325,76.666664,29.105469
197.600006,432.666656,70.133331,29.109375
207.866669,426.0,80.533333,29.109375
202.0,430.266693,68.400002,29.109375
205.200012,423.600006,79.199997,29.109375
198.799988,431.866699,66.799995,29.105469
207.733322,424.266663,82.666664,29.109375
202.266678,430.93335,69.733337,29.109375
205.866669,423.333313,77.866669,29.109375
197.46666,433.733337,72.0,29.109375
208.133331,422.266663,76.400002,29.105469
202.399994,431.733337,72.133331,29.105469
204.666672,423.600006,77.199997,29.105469
200.533325,431.600006,68.133331,29.109375
206.266663,425.600006,81.466667,29.105469
203.600006,431.733337,73.599998,29.109375
203.733337,424.399994,75.599998,29.109375
202.399994,430.666656,69.466667,29.109375
205.866669,423.866638,82.933334,29.109375
207.066666,433.066681,72.800003,29.105469
200.533325,422.0,78.800003,29.109375
204.266663,432.266663,71.466667,29.105469
203.333344,424.266663,80.666664,29.105469
203.199997,434.533356,75.73333,29.105469
205.333328,420.800018,76.133331,29.109375
203.46666,433.466675,71.199997,29.105469
204.933334,422.93335,80.266663,29.105469
203.46666,433.066681,78.133331,29.105469
203.333344,423.066681,71.599998,29.109375
206.266663,433.466675,72.533333,29.109375
200.533325,423.333313,78.133331,29.105469
204.666672,433.466675,78.666672,29.105469
204.400009,421.333344,71.599998,29.105469
201.466675,434.799988,72.933334,29.105469
204.933334,422.133331,79.333336,29.109375
202.133331,431.333344,73.866669,29.105469
208.0,424.399994,72.133331,29.105469
199.733337,432.799988,76.266663,29.105469
205.733337,423.200012,72.533333,29.105469
203.199997,430.533325,78.0,29.105469
205.466675,425.333313,70.0,29.105469
203.066681,432.666656,77.466667,29.109375
205.200012,423.066681,71.333328,29.105469
204.0,428.800018,78.400002,29.105469
203.600006,426.933319,68.933334,29.109375
200.266663,430.666656,81.333328,29.105469
205.466675,425.600006,67.066666,29.109375
206.266663,428.266663,79.333336,29.105469
202.266678,428.533325,68.26667,29.105469
203.066681,429.599976,77.733337,29.105469
204.133331,426.533325,72.533333,29.105469
205.866669,427.200012,78.933334,29.105469
202.0,427.733337,70.0,29.105469
204.533325,428.266663,76.400002,29.105469
204.666672,428.0,72.133331,29.105469
208.0,429.06665,76.799995,29.109375
198.933334,426.133362,73.599998,29.105469
203.199997,430.400024,75.199997,29.105469
202.800003,425.333313,74.400002,29.105469
204.933334,431.600006,78.533333,29.105469
204.0,425.333313,72.133331,29.105469
203.333344,432.400024,76.133331,29.109375
203.733337,425.066681,74.800003,29.105469
199.599991,429.06665,78.800003,29.105469
198.799988,428.666656,70.933334,29.105469
206.666656,427.733337,76.533333,29.105469
200.800003,428.266663,72.533333,29.105469
204.799988,428.133301,79.066666,29.105469
202.933334,430.800018,74.133331,29.105469
204.0,427.466675,75.599998,29.105469
203.600006,429.599976,72.0,29.105469
204.533325,424.133331,72.133331,29.105469
201.733337,432.133331,74.26667,29.109375
202.133331,427.466675,74.533333,29.109375
205.333328,430.400024,70.133331,29.105469
204.799988,426.266663,72.800003,29.105469
201.600006,431.466675,74.400002,29.105469
204.533325,426.399994,73.599998,29.105469
202.800003,430.93335,72.666672,29.105469
204.666672,428.666656,73.866669,29.109375
201.866669,429.466675,73.599998,29.105469
205.866669,426.933319,74.133331,29.105469
204.266663,429.466675,76.933334,29.105469
206.666656,428.266663,70.666664,29.105469
202.133331,427.466675,78.533333,29.105469
202.666656,427.06665,71.73333,29.105469
204.799988,428.266663,76.0,29.105469
202.399994,426.266663,69.866669,29.105469
204.533325,429.466675,75.466667,29.105469
202.399994,427.466675,70.533333,29.105469
205.333328,426.533325,75.73333,29.105469
204.533325,426.0,67.866669,29.105469
204.133331,429.06665,77.466667,29.109375
201.200012,427.599976,71.066666,29.109375
205.066666,428.266663,74.800003,29.105469
203.46666,426.133362,71.599998,29.105469
204.266663,431.733337,75.066666,29.105469
200.666672,427.200012,72.399994,29.105469
205.466675,429.733307,74.800003,29.105469
202.666656,425.600006,72.933334,29.109375
206.53334,430.800018,74.133331,29.105469
198.799988,427.06665,76.400002,29.105469
206.53334,431.333344,73.200005,29.105469
202.399994,425.333313,72.533333,29.105469
205.066666,431.199982,75.599998,29.105469
200.800003,425.200012,72.666672,29.105469
205.466675,430.800018,74.933334,29.105469
204.133331,425.066681,73.066666,29.105469
204.0,431.466675,76.400002,29.105469
201.200012,426.266663,72.933334,29.105469
207.46666,431.06665,73.333336,29.105469
204.0,424.666687,72.399994,29.105469
202.133331,431.466675,76.266663,29.105469
203.066681,424.799988,70.800003,29.105469
203.199997,431.866699,76.799995,29.105469
203.866669,427.06665,72.266663,29.105469
202.399994,429.733307,76.533333,29.105469
203.866669,425.066681,72.266663,29.105469
202.0,430.93335,79.733337,29.105469
205.333328,427.333344,72.533333,29.105469
201.733337,428.800018,77.866669,29.105469
203.333344,426.0,71.866669,29.105469
202.800003,431.333344,77.199997,29.105469
204.933334,430.133331,71.333328,29.105469
202.266678,427.466675,76.400002,29.105469
204.666672,427.200012,72.133331,29.105469
203.066681,429.199982,77.733337,29.105469
201.466675,428.800018,74.800003,29.105469
204.400009,428.133301,73.066666,29.101562
203.199997,427.333344,73.466667,29.105469
204.133331,428.533325,75.199997,29.105469
201.600006,428.266663,71.066666,29.105469
206.133331,426.666687,76.133331,29.105469
202.933334,429.466675,72.399994,29.105469
205.466675,427.06665,76.666664,29.105469
202.133331,430.266693,71.199997,29.105469
206.53334,425.866669,71.599998,29.105469
200.400009,428.266663,73.599998,29.105469
204.133331,427.733337,74.933334,29.105469
201.200012,429.333344,70.933334,29.101562
205.733337,424.799988,76.400002,29.105469
200.800003,430.266693,70.666664,29.105469
206.133331,427.599976,77.600006,29.105469
202.0,430.266693,70.266663,29.101562
205.200012,428.266663,77.466667,29.105469
199.466675,427.466675,69.333336,29.105469
209.06665,428.666656,76.133331,29.105469
203.46666,429.866669,66.533333,29.105469
202.666656,428.133301,79.066666,29.105469
203.066681,426.799988,66.666664,29.105469
206.133331,429.733307,79.333336,29.105469
202.0,430.93335,70.400002,29.101562
204.666672,426.266663,77.600006,29.105469
202.53334,430.93335,68.933334,29.105469
208.266663,424.799988,74.533333,29.105469
205.599991,433.066681,71.466667,29.105469
205.733337,423.733337,74.800003,29.105469
202.399994,432.93335,72.533333,29.105469
204.666672,423.200012,74.666664,29.105469
204.266663,430.800018,76.0,29.101562
201.466675,424.266663,73.866669,29.105469
203.199997,432.533325,73.599998,29.105469
205.200012,423.866638,74.0,29.105469
207.333344,432.93335,74.400002,29.105469
200.666672,423.600006,76.400002,29.105469
205.466675,433.600006,69.333336,29.101562
202.133331,424.933319,77.733337,29.105469
205.866669,434.0,77.066666,29.105469
202.266678,423.866638,70.400002,29.101562
205.466675,431.866699,75.73333,29.105469
203.333344,424.799988,74.26667,29.101562
204.0,423.466675,78.400002,29.105469
204.0,431.600006,65.866669,29.105469
202.399994,426.0,83.73333,29.105469
203.199997,430.266693,63.733334,29.101562
205.066666,422.533325,77.866669,29.105469
203.066681,433.733337,69.066666,29.105469
204.400009,424.799988,80.933334,29.101562
202.266678,430.133331,67.199997,29.105469
206.133331,422.400024,78.800003,29.105469
201.200012,434.399994,69.199997,29.105469
205.333328,426.0,79.199997,29.101562
202.133331,428.666656,68.933334,29.101562
208.0,424.266663,77.466667,29.105469
200.800003,433.733337,68.0,29.101562
206.266663,425.066681,81.199997,29.101562
199.733337,432.400024,67.733337,29.101562
205.599991,422.0,77.199997,29.105469
201.466675,435.600006,70.933334,29.101562
204.799988,420.533325,77.466667,29.101562
202.399994,435.066681,69.066666,29.101562
207.866669,422.400024,74.26667,29.105469
197.733322,433.600006,70.933334,29.101562
206.800003,422.799988,79.866669,29.105469
198.933334,432.533325,66.933334,29.101562
205.066666,424.533356,79.866669,29.101562
202.0,431.866699,67.466667,29.101562
206.933319,424.533356,80.933334,29.101562
199.733337,433.733337,68.400002,29.101562
202.399994,421.733337,80.933334,29.101562
202.933334,433.466675,67.199997,29.101562
207.866669,421.06665,70.666664,29.101562
200.93335,434.533356,75.866669,29.101562
203.600006,424.666687,70.800003,29.101562
202.266678,431.600006,73.733337,29.101562
203.333344,423.333313,74.133331,29.101562
201.200012,432.799988,70.533333,29.101562
201.733337,424.533356,70.266663,29.101562
204.266663,432.133331,73.866669,29.101562
203.066681,422.400024,80.266663,29.105469
202.800003,432.533325,66.266663,29.101562
203.733337,418.666656,73.733337,29.101562
204.0,433.466675,72.933334,29.101562
203.066681,422.666656,76.0,29.101562
203.199997,431.866699,70.800003,29.101562
199.199997,424.933319,67.333328,29.101562
206.666656,431.466675,78.933334,29.101562
201.733337,423.333313,70.933334,29.101562
204.666672,432.93335,71.866669,29.101562
199.06665,425.333313,66.666664,29.101562
208.266663,432.266663,77.466667,29.101562
201.600006,425.466644,67.466667,29.101562
204.533325,430.666656,75.199997,29.101562
202.666656,422.266663,66.400002,29.101562
203.199997,434.266663,78.26667,29.101562
205.200012,419.866669,73.200005,29.101562
200.0,434.666687,72.533333,29.105469
206.800003,423.066681,71.599998,29.101562
200.0,433.466675,76.266663,29.101562
207.733322,421.600006,71.066666,29.101562
201.600006,435.066681,73.066666,29.101562
202.133331,426.0,66.666664,29.101562
202.266678,432.93335,77.333328,29.101562
205.466675,422.266663,73.066666,29.105469
202.266678,434.666687,74.666664,29.101562
202.399994,426.133362,68.26667,29.101562
201.466675,431.866699,79.866669,29.101562
207.333344,424.266663,65.466667,29.101562
198.533325,432.666656,77.333328,29.101562
202.53334,428.266663,67.600006,29.101562
204.400009,430.133331,80.133331,29.101562
203.46666,425.200012,69.733337,29.101562
203.066681,432.533325,77.600006,29.101562
201.466675,430.533325,66.133331,29.097656
204.666672,427.466675,82.0,29.101562
204.666672,428.0,64.26667,29.101562
203.066681,430.666656,84.0,29.101562
202.133331,432.666656,67.199997,29.101562
205.066666,426.266663,81.73333,29.097656
201.866669,429.333344,65.466667,29.101562
204.266663,429.466675,82.266663,29.101562
200.0,431.600006,66.533333,29.101562
206.53334,425.466644,81.199997,29.101562
201.333328,429.733307,66.533333,29.101562
204.0,429.466675,77.333328,29.101562
197.600006,431.466675,69.333336,29.101562
206.800003,426.133362,79.733337,29.101562
199.733337,432.133331,67.333328,29.101562
204.266663,426.533325,82.0,29.101562
200.93335,434.133331,70.800003,29.101562
205.333328,422.400024,77.333328,29.101562
201.600006,432.799988,68.666672,29.101562
205.333328,424.666687,80.400002,29.101562
198.799988,432.93335,74.533333,29.101562
206.266663,423.200012,74.800003,29.101562
203.600006,432.400024,71.333328,29.101562
205.733337,423.600006,79.333336,29.101562
201.600006,432.266663,71.066666,29.101562
206.266663,423.866638,77.600006,29.097656
201.733337,433.733337,71.599998,29.101562
204.933334,423.066681,77.333328,29.101562
201.333328,431.866699,74.400002,29.101562
206.133331,424.666687,71.066666,29.101562
200.266663,432.666656,75.866669,29.101562
204.666672,424.799988,74.666664,29.097656
204.400009,431.600006,78.933334,29.101562
204.400009,423.866638,71.599998,29.101562
203.199997,432.666656,77.600006,29.101562
203.733337,424.799988,71.599998,29.101562
203.199997,430.0,80.933334,29.101562
202.0,426.933319,66.799995,29.101562
207.333344,429.06665,79.199997,29.101562
199.466675,428.266663,70.800003,29.097656
205.733337,429.333344,82.666664,29.101562
202.266678,428.533325,67.333328,29.101562
206.0,427.866669,80.800003,29.097656
201.333328,430.266693,68.26667,29.101562
204.666672,427.466675,79.066666,29.101562
201.866669,429.333344,69.866669,29.097656
205.466675,427.866669,79.466667,29.101562
199.06665,429.599976,71.333328,29.101562
203.333344,427.466675,81.066666,29.101562
203.600006,428.533325,65.466667,29.101562
205.066666,428.800018,78.400002,29.101562
202.53334,426.533325,67.866669,29.097656
203.46666,427.06665,77.866669,29.101562
203.733337,429.06665,69.466667,29.101562
203.066681,429.199982,79.066666,29.101562
202.53334,426.799988,68.666672,29.101562
203.600006,426.533325,75.066666,29.097656
205.200012,429.599976,68.800003,29.101562
201.333328,427.466675,79.866669,29.097656
202.933334,427.866669,70.400002,29.101562
203.333344,426.799988,75.333336,29.097656
203.733337,430.533325,71.466667,29.101562
204.133331,427.866669,77.199997,29.101562
204.799988,428.133301,70.800003,29.101562
205.200012,426.933319,74.933334,29.101562
202.800003,429.599976,73.599998,29.101562
199.866653,429.333344,79.199997,29.097656
204.0,427.466675,68.666672,29.097656
204.0,427.599976,74.0,29.101562
202.266678,430.533325,74.0,29.097656
202.53334,426.533325,75.466667,29.101562
202.266678,429.466675,72.800003,29.097656
205.066666,429.06665,75.333336,29.097656
202.0,429.06665,72.0,29.101562
204.933334,427.333344,75.066666,29.101562
204.533325,428.666656,74.533333,29.097656
207.866669,430.266693,72.133331,29.101562
202.266678,429.06665,74.26667,29.101562
204.666672,428.93335,74.800003,29.101562
202.800003,428.93335,74.0,29.101562
206.266663,430.400024,75.066666,29.101562
201.733337,428.666656,74.400002,29.097656
204.266663,428.533325,74.26667,29.097656
202.800003,428.666656,74.666664,29.097656
207.600006,428.0,72.666672,29.097656
200.133347,427.200012,77.066666,29.097656
203.46666,428.800018,75.199997,29.097656
203.066681,428.399994,75.599998,29.097656
204.533325,431.466675,76.666664,29.097656
202.53334,425.733337,72.666672,29.097656
204.266663,432.533325,76.0,29.097656
201.333328,427.06665,74.133331,29.101562
204.533325,429.733307,78.933334,29.097656
203.333344,425.600006,70.400002,29.097656
205.866669,432.400024,75.199997,29.097656
199.333328,426.0,75.73333,29.101562
