m1,m2,m3,temp
373.466675,-197.733322,51.466667,33.84375
375.066681,-199.333328,53.200001,33.84375
372.93335,-188.799988,52.266663,33.84375
374.399994,-196.399994,52.0,33.84375
372.666656,-192.133331,52.933334,33.84375
375.600006,-192.933334,51.066666,33.84375
373.866638,-199.199997,50.0,33.84375
376.133362,-202.266678,54.533333,33.84375
374.133331,-201.333328,53.466667,33.84375
372.666656,-187.066666,50.266666,33.84375
377.466675,-196.133331,53.733334,33.84375
371.866699,-190.0,50.266666,33.84375
376.533325,-194.933334,54.133335,33.84375
372.400024,-193.733337,50.0,33.84375
375.200012,-199.466675,51.866665,33.84375
373.466675,-200.266663,50.533333,33.84375
370.400024,-187.199997,52.399998,33.84375
376.399994,-199.199997,52.266663,33.84375
372.799988,-193.333344,52.533337,33.839844
375.866669,-193.333344,51.73333,33.839844
373.066681,-195.333328,53.333336,33.839844
371.199982,-196.266663,53.600002,33.839844
372.666656,-186.0,50.666664,33.84375
372.0,-186.399994,48.26667,33.84375
375.733337,-200.0,54.266666,33.84375
377.466675,-196.933319,51.333332,33.84375
371.733337,-189.06665,51.599998,33.839844
374.933319,-197.46666,52.933334,33.839844
373.066681,-197.066666,49.333336,33.84375
372.799988,-188.399994,53.866669,33.839844
371.199982,-187.199997,46.666664,33.839844
375.466644,-199.466675,56.0,33.839844
376.666687,-195.733337,52.800003,33.839844
370.0,-193.066681,52.666668,33.839844
375.200012,-199.466675,54.133335,33.839844
375.333313,-198.933334,47.733337,33.84375
371.600006,-187.46666,55.466667,33.839844
374.0,-186.266663,50.133331,33.839844
377.200012,-192.666656,48.933334,33.839844
375.066681,-192.53334,51.466667,33.839844
374.533356,-196.133331,53.733334,33.839844
373.466675,-196.266663,47.866669,33.839844
371.866699,-186.133331,49.200001,33.839844
371.06665,-188.266663,55.200001,33.839844
373.333313,-186.266663,51.599998,33.839844
370.133331,-186.133331,46.666664,33.839844
371.466675,-195.599991,55.333332,33.839844
374.533356,-194.0,53.600002,33.839844
372.666656,-194.400009,47.066666,33.84375
374.399994,-190.533325,55.466667,33.839844
376.799988,-199.599991,56.266666,33.839844
370.266693,-188.666672,48.666668,33.839844
369.599976,-191.866669,56.0,33.839844
374.666687,-192.133331,52.266663,33.839844
375.600006,-186.399994,48.26667,33.839844
370.93335,-186.53334,47.466663,33.839844
376.799988,-200.400009,54.666668,33.839844
374.533356,-198.666672,48.26667,33.839844
378.0,-196.133331,47.466663,33.839844
370.0,-192.266678,56.799999,33.839844
375.466644,-193.066681,53.333336,33.839844
373.066681,-192.800003,51.599998,33.839844
372.266663,-201.733337,55.866665,33.839844
377.866669,-202.0,55.066666,33.839844
370.133331,-187.066666,50.933334,33.839844
372.400024,-188.933334,56.666664,33.839844
378.800018,-198.666672,56.266666,33.839844
381.333344,-196.800003,46.799999,33.839844
370.93335,-194.0,58.133335,33.839844
375.600006,-195.066666,51.866665,33.839844
373.333313,-198.799988,47.466663,33.839844
373.866638,-202.0,57.600002,33.839844
374.266663,-184.400009,45.200001,33.839844
374.799988,-202.0,59.066666,33.839844
372.93335,-194.133331,56.133331,33.839844
373.466675,-193.600006,47.600002,33.839844
374.266663,-194.799988,54.933334,33.839844
374.533356,-194.133331,45.599998,33.839844
378.533325,-196.0,51.066666,33.839844
373.600006,-198.533325,48.133335,33.839844
376.799988,-200.93335,59.733334,33.839844
379.733307,-198.266663,54.666668,33.839844
376.266663,-195.733337,49.200001,33.839844
370.93335,-197.733322,46.933331,33.839844
372.266663,-202.399994,57.600002,33.839844
375.466644,-184.933334,46.133331,33.839844
374.799988,-189.333328,48.26667,33.839844
373.066681,-196.53334,55.333332,33.839844
376.0,-192.133331,47.466663,33.839844
370.133331,-194.0,47.600002,33.839844
369.333344,-188.399994,53.200001,33.839844
379.06665,-198.933334,50.0,33.839844
372.799988,-197.46666,47.199997,33.839844
374.799988,-188.533325,56.533333,33.839844
379.733307,-192.933334,52.133331,33.84375
372.93335,-190.266663,45.333332,33.84375
374.533356,-199.199997,58.666668,33.839844
377.599976,-198.399994,48.133335,33.839844
370.133331,-200.666672,51.599998,33.84375
377.466675,-201.333328,60.666664,33.839844
370.800018,-186.0,44.0,33.84375
367.200012,-192.53334,55.200001,33.839844
375.733337,-194.133331,59.599998,33.84375
379.599976,-190.533325,50.266666,33.839844
373.333313,-185.466675,44.133335,33.84375
377.200012,-200.93335,58.666668,33.84375
375.466644,-187.066666,50.799999,33.84375
371.466675,-185.599991,42.533337,33.84375
378.266663,-199.466675,60.400002,33.84375
380.800018,-195.866669,48.800003,33.84375
374.933319,-195.733337,44.400002,33.84375
373.600006,-189.599991,60.533333,33.84375
376.933319,-187.066666,50.533333,33.84375
370.266693,-201.200012,54.266666,33.84375
370.400024,-191.733337,58.666668,33.84375
376.666687,-192.266678,53.733334,33.84375
372.0,-190.533325,43.733334,33.84375
367.333344,-195.200012,54.533333,33.84375
374.266663,-191.600006,60.266666,33.84375
378.266663,-188.533325,51.866665,33.847656
371.733337,-186.133331,43.466667,33.847656
377.333344,-202.133331,60.533333,33.847656
379.199982,-194.400009,46.133331,33.847656
370.533325,-195.200012,50.799999,33.847656
377.333344,-193.866669,51.866665,33.847656
370.533325,-191.200012,44.266666,33.847656
368.133301,-186.399994,47.733337,33.847656
380.266693,-200.400009,54.133335,33.851562
377.06665,-197.733322,46.533333,33.851562
372.93335,-189.866653,60.133331,33.847656
369.599976,-194.133331,59.466667,33.851562
377.866669,-190.266663,45.733334,33.851562
372.133331,-198.0,60.266666,33.851562
377.733337,-197.600006,51.199997,33.851562
375.466644,-184.799988,45.333332,33.847656
366.0,-186.933319,46.799999,33.851562
381.466675,-199.06665,56.666664,33.851562
365.600006,-189.733337,49.066666,33.851562
377.466675,-198.799988,59.200001,33.851562
378.133301,-197.733322,47.333332,33.855469
369.599976,-198.533325,46.533333,33.851562
377.06665,-187.46666,54.933334,33.851562
374.133331,-192.53334,58.400002,33.855469
372.666656,-192.133331,44.666668,33.855469
372.799988,-194.933334,58.133335,33.855469
376.133362,-194.133331,46.133331,33.855469
368.399994,-200.533325,54.0,33.855469
377.200012,-185.466675,48.133335,33.855469
370.400024,-201.733337,56.666664,33.855469
379.866669,-200.666672,59.466667,33.859375
378.533325,-189.199997,44.266666,33.859375
367.466675,-190.400009,52.133331,33.855469
377.200012,-191.333328,60.133331,33.859375
379.466675,-187.199997,48.0,33.859375
377.333344,-196.933319,45.066666,33.859375
371.733337,-191.333328,60.133331,33.859375
376.799988,-189.333328,49.200001,33.859375
367.333344,-187.866669,43.866669,33.863281
373.600006,-194.666672,44.133335,33.859375
377.200012,-192.0,61.333332,33.863281
378.266663,-187.066666,49.200001,33.863281
368.666656,-188.266663,44.0,33.863281
368.93335,-200.533325,53.600002,33.863281
380.0,-201.866669,60.666664,33.863281
367.466675,-185.466675,43.200001,33.863281
381.06665,-200.93335,58.666668,33.863281
375.600006,-194.266663,50.133331,33.867188
368.800018,-191.066666,53.733334,33.863281
378.0,-190.666672,58.933334,33.867188
378.266663,-186.0,46.933331,33.867188
377.06665,-188.533325,49.866669,33.867188
369.599976,-187.46666,42.800003,33.867188
366.0,-193.733337,55.466667,33.867188
376.666687,-196.666656,58.26667,33.871094
375.866669,-202.800003,61.599998,33.871094
380.0,-198.933334,50.266666,33.867188
372.400024,-197.733322,44.266666,33.871094
372.266663,-202.933334,59.200001,33.871094
381.466675,-192.933334,53.066669,33.871094
374.666687,-189.866653,43.733334,33.871094
375.333313,-199.466675,60.933334,33.871094
380.0,-197.600006,49.333336,33.871094
374.133331,-185.866669,44.0,33.871094
376.266663,-200.0,62.0,33.871094
382.0,-196.133331,52.800003,33.875
363.600006,-191.866669,53.066669,33.875
366.533325,-197.066666,47.600002,33.875
374.799988,-202.0,61.599998,33.875
373.733337,-184.0,43.333336,33.875
364.933319,-187.333344,51.73333,33.875
370.800018,-194.666672,58.26667,33.878906
381.06665,-193.066681,56.666664,33.878906
377.333344,-186.800003,44.799999,33.878906
374.399994,-201.733337,61.466667,33.878906
381.333344,-198.266663,48.800003,33.878906
367.333344,-190.266663,56.533333,33.882812
380.266693,-195.733337,47.333332,33.882812
369.199982,-193.733337,46.799999,33.882812
371.06665,-186.133331,43.733334,33.882812
368.533325,-189.733337,57.199997,33.882812
379.466675,-198.266663,46.933331,33.886719
369.599976,-198.933334,46.933331,33.886719
379.599976,-197.333344,61.333332,33.886719
381.333344,-192.133331,49.866669,33.886719
369.866669,-187.866669,44.799999,33.886719
378.133301,-197.333344,57.066666,33.886719
377.733337,-202.933334,60.400002,33.886719
369.866669,-184.666672,42.933334,33.890625
380.266693,-201.333328,60.266666,33.890625
367.200012,-186.800003,43.733334,33.890625
367.866669,-189.866653,49.599998,33.890625
379.06665,-198.133331,52.266663,33.890625
366.266663,-189.333328,53.600002,33.894531
377.466675,-190.400009,59.200001,33.890625
372.799988,-186.133331,44.400002,33.894531
364.399994,-189.199997,48.666668,33.894531
373.333313,-193.866669,60.0,33.894531
374.399994,-190.666672,44.666668,33.898438
370.400024,-189.466675,58.533333,33.898438
378.133301,-186.666656,54.933334,33.898438
373.733337,-184.666672,43.733334,33.898438
377.200012,-202.266678,60.933334,33.898438
376.799988,-195.866669,57.333332,33.898438
368.533325,-189.199997,45.333332,33.902344
378.93335,-199.06665,56.399998,33.902344
376.133362,-196.53334,45.466667,33.902344
380.400024,-199.199997,48.400002,33.902344
370.400024,-197.333344,46.666664,33.90625
374.933319,-200.400009,62.666668,33.90625
382.400024,-197.46666,54.933334,33.90625
378.93335,-190.93335,57.866669,33.90625
378.399994,-185.733337,46.799999,33.90625
372.400024,-202.0,59.733334,33.90625
379.866669,-200.400009,53.600002,33.910156
376.0,-186.133331,45.466667,33.910156
365.733337,-187.600006,46.399998,33.910156
382.400024,-198.399994,55.466667,33.910156
376.666687,-196.399994,44.799999,33.914062
368.533325,-188.799988,55.599998,33.914062
378.399994,-188.666672,57.733337,33.914062
369.866669,-198.666672,46.0,33.914062
377.466675,-188.799988,54.666668,33.914062
381.600006,-192.53334,50.133331,33.914062
371.866699,-189.599991,44.666668,33.914062
370.800018,-192.266678,56.666664,33.917969
376.533325,-196.133331,46.933331,33.917969
369.466675,-199.333328,52.133331,33.921875
379.199982,-200.800003,60.933334,33.921875
383.600006,-196.800003,51.199997,33.921875
370.266693,-193.199997,46.0,33.921875
366.666687,-198.266663,50.266666,33.921875
375.066681,-203.199997,60.666664,33.921875
370.800018,-184.133331,44.133335,33.925781
367.06665,-189.06665,54.266666,33.925781
364.933319,-191.466675,48.933334,33.925781
374.799988,-195.333328,58.400002,33.925781
372.93335,-190.800003,45.066666,33.925781
377.06665,-197.333344,58.26667,33.929688
376.399994,-192.666656,56.399998,33.929688
370.533325,-192.266678,47.333332,33.925781
377.466675,-195.466675,55.733334,33.929688
373.600006,-194.266663,45.333332,33.929688
368.133301,-184.133331,44.266666,33.933594
366.666687,-190.800003,56.133331,33.933594
379.599976,-196.933319,47.466663,33.933594
369.466675,-198.399994,49.466667,33.933594
367.06665,-195.599991,54.666668,33.933594
376.666687,-198.0,57.866669,33.9375
369.466675,-189.333328,47.333332,33.9375
374.266663,-191.600006,58.400002,33.9375
378.93335,-201.200012,60.266666,33.9375
380.666656,-196.133331,49.466667,33.941406
370.0,-193.866669,46.933331,33.941406
377.599976,-193.866669,56.0,33.941406
377.06665,-201.600006,59.333336,33.941406
378.93335,-198.666672,49.333336,33.941406
370.400024,-200.533325,46.666664,33.945312
376.799988,-188.666672,55.333332,33.941406
374.666687,-193.600006,58.26667,33.945312
372.266663,-191.466675,46.133331,33.941406
371.866699,-193.733337,56.666664,33.945312
380.533325,-191.733337,56.533333,33.945312
381.199982,-199.733337,51.466667,33.949219
365.866669,-188.266663,53.200001,33.949219
375.466644,-189.06665,58.933334,33.949219
373.733337,-186.800003,45.466667,33.953125
373.466675,-189.599991,45.466667,33.953125
376.799988,-199.06665,58.666668,33.953125
378.266663,-197.066666,48.400002,33.953125
371.466675,-190.400009,57.199997,33.953125
365.866669,-187.600006,51.866665,33.957031
381.06665,-197.866669,51.066666,33.957031
372.266663,-195.200012,47.066666,33.957031
372.400024,-197.333344,57.466663,33.957031
375.200012,-200.800003,58.666668,33.957031
371.866699,-185.066666,45.866665,33.957031
367.599976,-187.46666,53.733334,33.960938
376.399994,-188.799988,56.399998,33.960938
381.333344,-194.933334,52.933334,33.960938
366.399994,-194.0,51.066666,33.964844
380.93335,-189.866653,51.066666,33.96875
368.0,-198.266663,53.333336,33.964844
371.866699,-188.666672,57.333332,33.964844
378.0,-187.066666,51.866665,33.96875
370.0,-199.466675,52.933334,33.96875
379.466675,-200.666672,59.733334,33.96875
378.0,-194.666672,53.066669,33.972656
369.199982,-190.533325,50.533333,33.972656
379.199982,-196.399994,51.466667,33.972656
368.399994,-188.399994,52.0,33.972656
365.333313,-186.399994,46.0,33.976562
371.600006,-191.466675,57.466663,33.976562
376.266663,-194.133331,45.866665,33.976562
372.799988,-194.933334,58.133335,33.976562
378.533325,-189.333328,56.533333,33.976562
372.266663,-196.666656,46.533333,33.980469
372.400024,-199.06665,57.199997,33.980469
381.199982,-197.199997,57.066666,33.980469
377.733337,-196.266663,49.466667,33.984375
369.733307,-197.866669,46.0,33.984375
378.800018,-189.733337,56.799999,33.984375
374.399994,-185.200012,46.133331,33.984375
373.600006,-194.799988,45.200001,33.988281
375.066681,-193.600006,57.333332,33.988281
376.399994,-191.733337,47.733337,33.988281
371.733337,-194.0,55.733334,33.992188
376.399994,-202.53334,59.599998,33.992188
380.666656,-199.466675,50.933334,33.992188
366.266663,-187.866669,53.733334,33.992188
375.733337,-191.333328,56.266666,33.996094
373.866638,-197.333344,58.933334,33.996094
378.800018,-196.800003,50.666664,33.996094
367.733337,-189.733337,53.866669,33.996094
378.800018,-198.933334,48.533333,34.0
381.600006,-199.599991,52.266663,34.0
371.733337,-197.333344,46.133331,34.0
372.133331,-200.400009,56.533333,34.003906
382.266663,-200.533325,57.733337,34.003906
377.599976,-193.199997,58.800003,34.003906
370.266693,-195.200012,44.933334,34.003906
369.06665,-201.066666,55.466667,34.007812
375.466644,-185.466675,46.933331,34.007812
375.066681,-195.466675,45.733334,34.011719
373.066681,-192.53334,58.400002,34.011719
376.266663,-191.066666,48.800003,34.011719
371.199982,-194.133331,55.599998,34.011719
366.133362,-186.666656,49.866669,34.015625
374.933319,-188.799988,58.933334,34.015625
377.733337,-185.599991,49.733334,34.015625
366.799988,-185.066666,44.133335,34.015625
370.666656,-189.06665,43.600002,34.019531
378.0,-195.599991,59.733334,34.019531
369.733307,-192.266678,44.400002,34.023438
378.93335,-192.399994,57.466663,34.023438
372.799988,-189.06665,59.066666,34.023438
374.666687,-197.199997,45.466667,34.023438
373.866638,-190.400009,58.0,34.027344
371.199982,-196.53334,45.866665,34.027344
365.200012,-193.866669,48.666668,34.027344
381.06665,-190.800003,52.666668,34.03125
366.0,-197.46666,51.73333,34.03125
379.733307,-187.46666,49.599998,34.035156
367.466675,-186.133331,45.599998,34.035156
370.666656,-191.066666,58.533333,34.039062
377.333344,-194.0,45.733334,34.039062
372.93335,-194.266663,59.066666,34.039062
370.266693,-199.199997,58.0,34.042969
379.466675,-198.933334,53.733334,34.039062
366.0,-186.399994,49.333336,34.042969
375.066681,-189.199997,59.466667,34.042969
381.466675,-198.266663,57.199997,34.046875
379.333344,-193.066681,46.666664,34.046875
369.06665,-192.933334,48.933334,34.050781
378.533325,-195.200012,53.066669,34.050781
377.866669,-185.333328,46.799999,34.050781
372.799988,-202.133331,59.466667,34.050781
381.733337,-200.0,56.533333,34.054688
377.599976,-196.666656,46.266666,34.050781
370.0,-193.199997,55.599998,34.054688
378.0,-192.133331,57.866669,34.058594
366.799988,-196.266663,46.533333,34.058594
378.666656,-188.933334,56.133331,34.0625
381.333344,-196.933319,52.266663,34.0625
372.666656,-192.800003,45.200001,34.0625
371.199982,-195.599991,56.0,34.0625
377.200012,-193.199997,47.333332,34.066406
372.0,-184.400009,44.0,34.066406
377.333344,-202.266678,61.333332,34.066406
382.266663,-198.133331,51.73333,34.070312
372.93335,-194.666672,45.733334,34.070312
375.333313,-187.600006,44.533333,34.074219
374.399994,-200.93335,60.666664,34.074219
379.733307,-198.933334,50.266666,34.074219
369.06665,-197.333344,45.200001,34.078125
364.533356,-187.066666,50.400002,34.078125
375.866669,-191.600006,59.466667,34.078125
373.733337,-195.333328,45.599998,34.082031
371.866699,-197.333344,57.733337,34.082031
367.06665,-188.799988,50.799999,34.085938
380.533325,-201.333328,51.466667,34.085938
372.400024,-197.199997,45.466667,34.085938
370.93335,-202.53334,56.933331,34.089844
371.600006,-193.46666,59.333336,34.089844
376.933319,-190.266663,49.733334,34.089844
368.0,-191.066666,44.266666,34.09375
366.799988,-194.0,58.0,34.09375
374.933319,-190.400009,60.533333,34.097656
377.599976,-186.53334,49.733334,34.097656
368.93335,-201.333328,56.0,34.097656
380.666656,-201.733337,58.133335,34.101562
378.800018,-198.933334,60.666664,34.101562
369.333344,-189.599991,42.399998,34.105469
367.200012,-195.466675,56.399998,34.105469
380.133331,-191.066666,47.600002,34.109375
374.0,-196.800003,44.400002,34.109375
368.0,-201.200012,55.200001,34.113281
377.866669,-185.200012,48.0,34.113281
366.666687,-184.799988,45.466667,34.117188
373.733337,-194.799988,60.266666,34.117188
373.733337,-190.400009,44.666668,34.121094
368.133301,-194.533325,55.333332,34.121094
377.599976,-195.733337,48.400002,34.121094
372.666656,-184.133331,43.600002,34.125
364.533356,-187.733322,52.933334,34.125
381.06665,-198.533325,50.666664,34.128906
372.400024,-195.733337,45.333332,34.128906
365.333313,-195.066666,49.866669,34.132812
375.866669,-200.0,60.133331,34.132812
372.266663,-185.599991,44.266666,34.132812
378.800018,-202.0,60.533333,34.136719
377.333344,-187.066666,51.199997,34.136719
369.866669,-184.0,42.399998,34.136719
379.599976,-201.866669,60.533333,34.140625
381.199982,-196.53334,48.133335,34.144531
372.799988,-192.266678,44.0,34.144531
366.933319,-198.0,54.133335,34.148438
378.800018,-187.600006,49.333336,34.148438
369.333344,-185.333328,44.0,34.152344
372.266663,-185.733337,42.800003,34.152344
365.200012,-190.93335,53.066669,34.152344
380.533325,-195.733337,49.466667,34.15625
371.466675,-194.133331,46.399998,34.15625
366.666687,-198.399994,51.866665,34.160156
378.800018,-186.933319,50.799999,34.164062
370.133331,-184.266663,43.333336,34.164062
366.799988,-188.533325,56.399998,34.164062
376.533325,-197.866669,61.199997,34.167969
380.93335,-194.133331,51.066666,34.171875
366.266663,-196.53334,54.133335,34.171875
379.333344,-189.333328,48.933334,34.175781
377.333344,-186.800003,52.133331,34.179688
369.199982,-199.866653,51.466667,34.179688
378.93335,-201.466675,61.599998,34.179688
369.333344,-186.666656,43.200001,34.183594
373.066681,-191.600006,43.466667,34.1875
366.0,-196.933319,52.133331,34.191406
378.800018,-189.333328,49.733334,34.191406
370.266693,-185.599991,44.133335,34.191406
370.266693,-190.400009,59.599998,34.195312
376.266663,-186.800003,50.133331,34.195312
370.0,-199.199997,54.266666,34.199219
380.266693,-199.06665,60.799999,34.203125
377.866669,-195.066666,51.866665,34.203125
372.93335,-193.866669,44.133335,34.207031
377.06665,-191.200012,60.533333,34.207031
379.199982,-186.53334,48.800003,34.210938
376.533325,-195.866669,43.333336,34.214844
372.533325,-192.933334,60.0,34.214844
376.666687,-190.533325,49.333336,34.21875
370.800018,-189.06665,44.0,34.21875
367.866669,-188.799988,50.133331,34.226562
375.333313,-190.533325,60.666664,34.222656
370.800018,-196.133331,43.466667,34.226562
370.0,-201.600006,57.866669,34.226562
372.133331,-191.066666,60.0,34.230469
376.666687,-190.400009,49.599998,34.234375
370.400024,-196.266663,55.733334,34.234375
378.133301,-195.866669,59.866669,34.238281
373.866638,-189.599991,60.400002,34.242188
377.866669,-186.933319,50.666664,34.242188
370.533325,-184.400009,44.799999,34.246094
366.133362,-189.06665,56.266666,34.246094
365.600006,-193.333344,51.066666,34.25
380.666656,-191.866669,50.133331,34.253906
367.333344,-197.733322,54.666668,34.257812
376.133362,-199.599991,59.200001,34.257812
376.266663,-197.600006,44.933334,34.261719
370.400024,-201.600006,53.600002,34.261719
378.533325,-200.0,60.533333,34.265625
368.800018,-187.333344,43.066669,34.265625
373.733337,-193.733337,43.733334,34.269531
366.933319,-196.933319,54.400002,34.273438
376.133362,-200.800003,59.066666,34.273438
378.133301,-197.733322,47.333332,34.277344
381.600006,-198.399994,52.399998,34.277344
375.600006,-195.200012,45.333332,34.277344
374.399994,-192.666656,59.066666,34.285156
373.733337,-189.06665,45.733334,34.285156
367.06665,-196.933319,52.800003,34.289062
375.733337,-199.599991,59.200001,34.289062
378.533325,-197.600006,47.733337,34.292969
370.800018,-198.133331,46.666664,34.292969
377.200012,-201.333328,60.799999,34.296875
380.93335,-196.666656,50.666664,34.300781
367.466675,-192.666656,55.200001,34.300781
380.133331,-192.133331,48.0,34.304688
378.133301,-187.066666,48.26667,34.308594
369.466675,-200.93335,53.200001,34.308594
377.06665,-201.733337,58.666668,34.3125
377.466675,-197.733322,47.333332,34.316406
371.333344,-187.066666,43.733334,34.316406
378.266663,-199.199997,60.400002,34.320312
379.199982,-192.666656,49.333336,34.324219
371.333344,-192.266678,47.199997,34.328125
370.0,-199.866653,52.933334,34.328125
377.333344,-203.066681,59.733334,34.332031
370.666656,-185.066666,43.600002,34.332031
368.533325,-190.400009,54.933334,34.335938
377.733337,-194.133331,52.800003,34.339844
370.533325,-193.199997,53.066669,34.339844
370.666656,-195.866669,46.266666,34.347656
367.333344,-186.666656,50.400002,34.347656
371.733337,-190.666672,58.666668,34.351562
375.200012,-188.666672,49.200001,34.351562
369.06665,-188.133331,44.533333,34.355469
369.599976,-188.933334,49.466667,34.359375
379.733307,-199.199997,54.0,34.359375
374.0,-193.600006,48.26667,34.363281
370.800018,-202.266678,56.0,34.367188
369.733307,-192.133331,57.866669,34.367188
368.93335,-195.866669,54.266666,34.375
370.400024,-188.933334,58.26667,34.378906
376.266663,-186.666656,51.866665,34.382812
371.199982,-186.0,45.066666,34.386719
376.666687,-200.266663,60.133331,34.390625
377.599976,-189.466675,46.666664,34.390625
372.266663,-199.466675,59.866669,34.394531
377.06665,-199.599991,53.066669,34.398438
370.266693,-188.399994,51.73333,34.402344
368.0,-187.333344,46.933331,34.402344
381.333344,-199.06665,55.866665,34.40625
377.466675,-195.066666,46.399998,34.410156
371.466675,-192.933334,58.666668,34.410156
376.0,-189.06665,55.866665,34.417969
374.399994,-185.066666,46.666664,34.417969
373.733337,-202.399994,58.800003,34.421875
378.533325,-200.0,53.333336,34.425781
373.600006,-189.599991,47.066666,34.425781
368.800018,-192.800003,48.26667,34.429688
370.93335,-196.266663,58.400002,34.433594
376.0,-188.266663,46.533333,34.433594
374.266663,-184.400009,47.466663,34.441406
369.199982,-186.399994,47.733337,34.441406
369.866669,-191.333328,57.466663,34.445312
377.599976,-194.933334,47.333332,34.445312
372.400024,-190.0,54.400002,34.453125
373.600006,-189.733337,56.933331,34.453125
372.93335,-198.799988,47.733337,34.453125
373.333313,-202.53334,58.133335,34.457031
371.199982,-195.333328,58.133335,34.460938
374.933319,-189.06665,45.333332,34.464844
373.866638,-198.666672,58.0,34.464844
377.06665,-199.866653,49.599998,34.46875
379.199982,-198.666672,54.133335,34.472656
376.0,-198.0,47.466663,34.476562
373.600006,-198.399994,56.266666,34.476562
377.733337,-196.666656,56.933331,34.480469
376.666687,-198.133331,52.933334,34.484375
370.400024,-187.866669,51.866665,34.488281
371.733337,-187.199997,57.466663,34.492188
374.399994,-186.0,49.200001,34.492188
371.06665,-192.399994,50.0,34.496094
371.06665,-196.399994,57.866669,34.496094
375.066681,-194.0,51.199997,34.503906
373.600006,-195.466675,48.133335,34.503906
369.599976,-186.53334,49.466667,34.507812
378.800018,-199.199997,55.066666,34.511719
376.399994,-197.199997,48.0,34.511719
371.466675,-191.600006,56.799999,34.515625
371.733337,-199.06665,56.399998,34.519531
374.799988,-186.133331,47.466663,34.523438
374.133331,-201.333328,58.400002,34.523438
377.733337,-199.599991,53.200001,34.527344
372.400024,-188.666672,47.600002,34.53125
373.200012,-195.599991,57.466663,34.535156
377.06665,-191.333328,54.0,34.535156
370.533325,-196.133331,51.466667,34.539062
375.733337,-200.666672,56.799999,34.542969
370.800018,-186.53334,48.400002,34.542969
369.06665,-189.599991,55.466667,34.546875
376.266663,-196.666656,49.066666,34.550781
376.799988,-191.733337,49.599998,34.554688
370.400024,-196.800003,55.866665,34.554688
374.533356,-197.600006,54.0,34.558594
374.799988,-197.333344,48.133335,34.5625
377.599976,-199.466675,55.599998,34.566406
371.600006,-189.06665,50.0,34.570312
370.666656,-191.333328,49.200001,34.570312
375.333313,-193.066681,55.866665,34.574219
371.733337,-187.866669,54.933334,34.578125
373.733337,-199.599991,49.733334,34.582031
372.533325,-185.200012,53.866669,34.582031
373.200012,-185.866669,48.666668,34.585938
371.466675,-194.266663,53.200001,34.589844
372.0,-194.266663,55.200001,34.59375
374.266663,-192.0,50.400002,34.59375
371.866699,-196.666656,50.933334,34.597656
375.066681,-198.666672,48.933334,34.601562
375.600006,-199.199997,56.266666,34.601562
372.799988,-188.399994,48.933334,34.605469
369.866669,-190.666672,49.599998,34.609375
372.266663,-196.0,48.533333,34.613281
373.866638,-189.466675,55.866665,34.617188
374.799988,-187.733322,48.800003,34.621094
370.533325,-186.800003,50.400002,34.621094
370.400024,-188.266663,46.799999,34.625
376.666687,-195.733337,56.0,34.628906
371.199982,-192.933334,48.400002,34.632812
375.333313,-192.133331,56.133331,34.632812
378.0,-199.333328,53.200001,34.640625
369.866669,-187.866669,52.800003,34.640625
378.266663,-198.799988,50.266666,34.644531
369.466675,-189.199997,54.266666,34.648438
369.599976,-195.333328,51.866665,34.652344
378.133301,-189.06665,52.533337,34.652344
371.06665,-199.199997,54.133335,34.660156
374.666687,-200.800003,56.533333,34.660156
373.866638,-187.733322,51.333332,34.664062
371.199982,-188.399994,45.866665,34.667969
368.666656,-191.466675,54.400002,34.671875
378.800018,-193.866669,50.133331,34.671875
373.466675,-196.933319,46.933331,34.675781
371.466675,-200.93335,53.866669,34.683594
375.200012,-200.0,56.799999,34.683594
375.600006,-197.866669,48.666668,34.6875
379.06665,-197.733322,52.533337,34.691406
374.933319,-196.666656,47.866669,34.695312
372.799988,-196.666656,56.933331,34.699219
378.93335,-194.799988,56.666664,34.699219
373.466675,-188.799988,57.199997,34.707031
373.866638,-198.399994,47.733337,34.707031
373.200012,-202.133331,57.066666,34.710938
373.600006,-184.933334,47.466663,34.714844
375.733337,-192.266678,46.933331,34.71875
372.400024,-193.600006,54.799999,34.722656
376.0,-195.599991,49.599998,34.726562
370.533325,-196.800003,48.400002,34.726562
367.733337,-187.733322,50.933334,34.730469
378.0,-196.53334,53.066669,34.734375
366.266663,-191.866669,52.933334,34.742188
372.400024,-195.333328,57.199997,34.746094
372.666656,-200.0,58.26667,34.746094
378.0,-199.599991,52.533337,34.75
370.666656,-190.266663,54.933334,34.753906
377.333344,-198.399994,48.800003,34.757812
379.333344,-196.133331,53.200001,34.761719
376.0,-193.066681,47.466663,34.765625
372.93335,-194.133331,55.733334,34.769531
374.933319,-194.266663,50.133331,34.773438
373.333313,-184.266663,45.200001,34.773438
374.666687,-201.333328,59.066666,34.78125
379.06665,-198.0,52.933334,34.785156
375.200012,-196.266663,47.600002,34.789062
375.600006,-187.066666,46.666664,34.792969
373.066681,-200.93335,58.533333,34.796875
380.133331,-201.466675,53.466667,34.800781
374.399994,-199.333328,47.066666,34.804688
368.533325,-189.733337,49.066666,34.808594
378.800018,-194.266663,55.200001,34.8125
376.133362,-190.266663,47.199997,34.816406
372.93335,-197.46666,58.400002,34.816406
373.733337,-187.333344,55.200001,34.824219
373.333313,-185.733337,46.266666,34.824219
374.533356,-199.199997,58.800003,34.828125
370.800018,-188.933334,45.733334,34.832031
372.400024,-187.199997,47.600002,34.835938
375.466644,-202.666656,56.533333,34.839844
376.666687,-199.199997,48.26667,34.84375
372.533325,-199.333328,51.466667,34.847656
375.333313,-192.133331,47.333332,34.851562
373.466675,-196.133331,56.266666,34.855469
375.200012,-196.0,48.400002,34.855469
371.333344,-198.533325,49.466667,34.859375
368.266663,-188.533325,52.266663,34.863281
371.199982,-190.400009,56.0,34.871094
373.600006,-189.733337,48.133335,34.871094
373.733337,-194.933334,57.333332,34.875
370.666656,-187.733322,52.666668,34.878906
371.600006,-187.600006,57.199997,34.882812
373.733337,-198.133331,48.533333,34.886719
372.400024,-200.133347,56.933331,34.890625
372.266663,-191.200012,52.133331,34.894531
374.533356,-190.800003,57.333332,34.898438
376.533325,-185.733337,51.066666,34.902344
372.400024,-200.800003,55.733334,34.90625
370.533325,-189.199997,56.799999,34.910156
374.399994,-188.133331,49.466667,34.914062
369.866669,-189.199997,47.066666,34.917969
376.933319,-197.333344,57.199997,34.921875
374.266663,-187.199997,46.799999,34.925781
372.666656,-200.0,58.0,34.929688
371.866699,-185.466675,48.0,34.933594
373.733337,-202.933334,57.466663,34.9375
373.466675,-188.133331,52.533337,34.941406
371.06665,-188.666672,46.133331,34.945312
368.666656,-192.0,53.200001,34.949219
372.266663,-193.733337,56.0,34.949219
375.466644,-187.066666,53.200001,34.957031
372.533325,-185.599991,46.666664,34.960938
370.0,-187.46666,52.533337,34.960938
371.600006,-189.466675,55.333332,34.964844
376.933319,-191.600006,54.799999,34.96875
373.066681,-188.133331,47.600002,34.972656
372.133331,-188.0,52.399998,34.976562
371.333344,-188.666672,56.933331,34.980469
369.06665,-190.800003,55.466667,34.984375
373.600006,-190.133347,52.533337,34.988281
373.466675,-194.666672,53.600002,34.992188
375.466644,-193.333344,57.066666,34.992188
375.466644,-199.733337,54.400002,35.0
374.133331,-195.599991,50.0,35.0
373.600006,-200.533325,53.733334,35.007812
375.466644,-201.066666,57.066666,35.011719
373.866638,-192.53334,55.866665,35.015625
376.799988,-192.266678,54.266666,35.019531
374.533356,-191.600006,47.466663,35.023438
372.400024,-197.46666,55.200001,35.027344
372.533325,-186.53334,53.600002,35.03125
372.0,-186.666656,47.066666,35.035156
370.266693,-189.866653,52.666668,35.039062
378.133301,-196.133331,52.133331,35.042969
372.93335,-196.133331,48.0,35.046875
371.733337,-200.133347,52.133331,35.050781
372.93335,-201.333328,56.399998,35.050781
377.06665,-200.533325,52.533337,35.054688
376.0,-194.133331,54.933334,35.058594
371.733337,-193.866669,51.066666,35.066406
371.733337,-197.733322,54.799999,35.066406
375.066681,-198.666672,53.066669,35.070312
371.733337,-186.0,49.333336,35.074219
375.333313,-198.133331,55.733334,35.078125
376.133362,-195.733337,54.666668,35.082031
371.06665,-193.333344,52.399998,35.082031
372.533325,-197.733322,50.133331,35.089844
372.799988,-186.933319,53.733334,35.09375
372.400024,-186.133331,49.599998,35.09375
370.93335,-188.533325,51.599998,35.101562
371.866699,-193.333344,54.133335,35.105469
372.93335,-194.400009,51.466667,35.109375
371.466675,-196.666656,50.933334,35.113281
375.333313,-190.266663,53.733334,35.113281
370.133331,-186.53334,53.200001,35.121094
371.333344,-186.0,49.333336,35.125
370.800018,-188.399994,50.0,35.128906
370.0,-190.666672,53.600002,35.132812
372.93335,-198.533325,53.466667,35.136719
373.066681,-186.399994,51.333332,35.140625
375.200012,-200.800003,53.733334,35.144531
371.06665,-185.599991,49.599998,35.148438
371.199982,-192.933334,51.466667,35.152344
371.06665,-193.199997,50.266666,35.15625
373.866638,-191.066666,54.133335,35.15625
372.266663,-197.333344,50.266666,35.160156
371.600006,-187.733322,52.399998,35.164062
375.866669,-197.600006,53.866669,35.167969
372.799988,-194.799988,50.533333,35.171875
377.06665,-196.0,55.466667,35.175781
373.466675,-188.0,52.133331,35.179688
373.466675,-199.599991,53.466667,35.183594
372.0,-187.333344,52.666668,35.1875
369.466675,-189.199997,52.800003,35.191406
374.533356,-191.333328,53.066669,35.195312
374.666687,-189.599991,49.733334,35.199219
374.933319,-188.799988,52.133331,35.203125
372.266663,-188.533325,52.533337,35.207031
370.400024,-189.06665,49.866669,35.214844
371.333344,-192.666656,51.066666,35.214844
373.333313,-192.399994,53.466667,35.21875
372.799988,-197.199997,51.599998,35.222656
374.399994,-199.599991,51.066666,35.226562
370.666656,-188.0,51.333332,35.230469
370.533325,-188.533325,50.133331,35.234375
371.600006,-192.133331,51.333332,35.238281
371.600006,-197.333344,50.533333,35.242188
374.799988,-199.599991,54.400002,35.25
373.466675,-199.733337,53.200001,35.25
373.733337,-199.06665,49.466667,35.253906
375.200012,-195.599991,52.0,35.261719
372.799988,-193.066681,53.866669,35.261719
370.133331,-194.533325,52.933334,35.265625
370.93335,-196.800003,50.666664,35.269531
370.266693,-187.199997,50.533333,35.273438
373.200012,-188.533325,53.066669,35.277344
374.933319,-196.266663,52.533337,35.28125
376.266663,-195.599991,53.200001,35.285156
375.600006,-199.733337,54.133335,35.289062
374.0,-199.733337,52.399998,35.296875
374.266663,-199.466675,52.399998,35.300781
372.133331,-188.399994,53.733334,35.300781
373.466675,-195.333328,53.200001,35.308594
372.400024,-197.866669,52.266663,35.3125
369.866669,-197.066666,51.199997,35.316406
372.799988,-198.933334,52.933334,35.320312
372.533325,-188.799988,52.800003,35.328125
374.266663,-198.399994,52.533337,35.332031
374.533356,-197.066666,52.0,35.335938
378.0,-196.666656,54.400002,35.339844
371.733337,-186.933319,51.333332,35.34375
370.800018,-186.399994,51.466667,35.347656
374.266663,-187.600006,53.866669,35.351562
370.800018,-187.199997,50.133331,35.355469
371.733337,-193.46666,51.466667,35.363281
372.533325,-192.399994,51.73333,35.367188
376.799988,-191.333328,54.266666,35.371094
373.333313,-188.266663,49.866669,35.375
374.133331,-198.533325,52.266663,35.378906
371.199982,-190.133347,53.333336,35.382812
371.199982,-190.800003,49.733334,35.386719
374.266663,-193.199997,50.799999,35.390625
370.666656,-186.0,50.533333,35.394531
373.066681,-187.333344,53.600002,35.398438
373.866638,-198.666672,52.933334,35.402344
375.600006,-199.466675,52.0,35.40625
377.599976,-190.400009,53.866669,35.410156
373.600006,-190.400009,51.199997,35.414062
374.133331,-199.333328,53.733334,35.417969
373.066681,-198.399994,51.466667,35.421875
369.466675,-187.199997,49.733334,35.425781
375.466644,-197.600006,54.400002,35.429688
368.666656,-190.93335,49.733334,35.4375
368.800018,-192.266678,51.199997,35.4375
372.0,-188.266663,52.0,35.445312
374.133331,-187.199997,53.733334,35.449219
370.400024,-186.800003,50.533333,35.453125
369.466675,-188.0,50.533333,35.457031
369.199982,-194.266663,50.799999,35.460938
378.266663,-190.533325,53.733334,35.46875
372.799988,-187.333344,50.0,35.472656
370.666656,-187.46666,51.73333,35.476562
374.266663,-190.533325,54.400002,35.480469
368.93335,-190.666672,49.599998,35.484375
368.533325,-193.600006,50.799999,35.492188
378.133301,-191.733337,54.533333,35.496094
375.466644,-199.333328,51.866665,35.5
370.266693,-186.53334,52.399998,35.503906
375.066681,-190.266663,53.733334,35.507812
369.599976,-187.600006,49.466667,35.511719
372.266663,-189.06665,50.799999,35.515625
376.266663,-199.199997,55.599998,35.523438
373.333313,-198.533325,50.799999,35.527344
371.06665,-198.799988,51.333332,35.53125
378.800018,-200.0,56.399998,35.535156
367.866669,-188.533325,49.733334,35.539062
380.0,-196.399994,55.466667,35.542969
367.200012,-190.400009,50.533333,35.546875
370.266693,-187.600006,52.399998,35.550781
375.600006,-190.266663,51.73333,35.554688
368.800018,-198.799988,50.400002,35.558594
377.200012,-187.333344,54.533333,35.5625
379.06665,-196.133331,52.666668,35.566406
368.0,-192.266678,52.933334,35.570312
373.733337,-195.466675,55.733334,35.574219
372.266663,-195.866669,49.733334,35.578125
378.266663,-199.733337,52.266663,35.582031
367.466675,-187.333344,52.533337,35.589844
373.200012,-191.466675,55.866665,35.589844
372.266663,-189.866653,49.066666,35.59375
375.733337,-196.800003,51.866665,35.601562
369.866669,-196.800003,49.066666,35.605469
375.866669,-188.399994,56.533333,35.609375
372.93335,-186.53334,49.066666,35.613281
373.466675,-192.800003,48.400002,35.617188
371.333344,-195.333328,56.666664,35.621094
374.533356,-195.066666,51.199997,35.625
370.533325,-189.333328,53.866669,35.628906
374.399994,-200.400009,56.666664,35.636719
369.866669,-187.066666,47.466663,35.640625
375.733337,-197.600006,58.133335,35.640625
369.333344,-190.800003,46.666664,35.648438
371.333344,-199.866653,55.466667,35.652344
378.93335,-200.266663,56.133331,35.65625
372.133331,-198.266663,49.066666,35.660156
372.533325,-188.0,57.199997,35.664062
372.533325,-190.0,48.133335,35.667969
374.533356,-196.399994,57.733337,35.671875
380.266693,-193.199997,54.933334,35.675781
367.06665,-194.799988,51.066666,35.679688
380.266693,-201.600006,57.600002,35.683594
376.799988,-198.266663,49.599998,35.6875
371.333344,-187.733322,55.200001,35.695312
375.066681,-197.733322,47.466663,35.699219
377.200012,-192.53334,49.466667,35.703125
368.93335,-195.466675,56.0,35.707031
376.799988,-197.199997,55.466667,35.707031
366.266663,-185.200012,48.0,35.714844
368.800018,-190.800003,46.266666,35.71875
377.733337,-193.066681,57.866669,35.722656
368.533325,-195.066666,47.466663,35.726562
369.599976,-198.933334,54.0,35.730469
380.666656,-199.333328,54.533333,35.734375
373.866638,-196.133331,48.0,35.742188
370.533325,-195.066666,54.666668,35.746094
379.199982,-195.866669,58.133335,35.746094
373.733337,-186.53334,46.533333,35.753906
373.600006,-201.466675,58.800003,35.753906
370.133331,-185.200012,46.133331,35.757812
366.666687,-186.399994,53.866669,35.761719
374.0,-198.0,58.800003,35.769531
380.0,-193.333344,54.933334,35.773438
372.266663,-189.466675,46.799999,35.777344
374.533356,-199.333328,58.666668,35.78125
373.733337,-200.800003,57.600002,35.785156
381.199982,-199.06665,54.400002,35.789062
373.333313,-194.799988,47.333332,35.792969
370.666656,-197.46666,55.866665,35.796875
370.93335,-198.799988,58.26667,35.804688
379.333344,-199.199997,54.400002,35.808594
366.133362,-186.399994,50.266666,35.8125
379.866669,-199.866653,53.733334,35.8125
370.266693,-190.800003,47.600002,35.820312
376.399994,-196.800003,57.733337,35.820312
368.0,-187.733322,47.866669,35.828125
377.866669,-200.0,56.0,35.832031
375.200012,-188.0,49.733334,35.832031
365.066681,-188.133331,46.533333,35.839844
380.533325,-196.800003,58.933334,35.84375
377.599976,-191.733337,48.0,35.847656
371.866699,-197.600006,46.133331,35.851562
369.599976,-200.266663,54.0,35.859375
375.600006,-185.333328,48.400002,35.863281
371.733337,-199.599991,57.466663,35.867188
378.0,-190.0,54.799999,35.871094
371.733337,-185.466675,46.399998,35.875
375.200012,-202.266678,59.466667,35.878906
379.866669,-200.266663,51.599998,35.882812
368.666656,-189.199997,47.333332,35.890625
372.0,-192.133331,57.866669,35.894531
377.733337,-189.06665,55.333332,35.898438
367.599976,-199.333328,50.0,35.90625
365.600006,-190.0,55.333332,35.910156
376.799988,-196.800003,46.399998,35.910156
367.06665,-198.533325,50.799999,35.917969
375.733337,-188.666672,51.066666,35.921875
366.133362,-193.600006,46.933331,35.925781
378.133301,-191.466675,55.733334,35.933594
363.733337,-196.133331,50.666664,35.933594
378.0,-190.0,52.266663,35.9375
376.799988,-187.066666,54.666668,35.941406
367.333344,-199.599991,51.066666,35.949219
376.0,-202.399994,59.866669,35.949219
377.866669,-198.933334,48.933334,35.957031
367.866669,-184.533325,43.733334,35.960938
363.600006,-188.666672,55.599998,35.964844
374.266663,-191.333328,57.466663,35.96875
367.733337,-196.0,48.933334,35.972656
368.533325,-196.53334,55.066666,35.980469
376.266663,-196.0,57.333332,35.980469
367.599976,-188.933334,48.26667,35.988281
375.866669,-195.599991,54.666668,35.992188
374.399994,-184.933334,47.733337,35.996094
370.93335,-201.333328,59.066666,36.0
372.400024,-184.533325,45.466667,36.003906
373.600006,-200.93335,62.133331,36.007812
373.600006,-194.533325,58.666668,36.011719
372.0,-188.799988,45.866665,36.015625
374.399994,-195.466675,61.199997,36.019531
370.133331,-191.200012,43.733334,36.023438
369.199982,-200.666672,58.26667,36.03125
374.533356,-184.666672,46.533333,36.035156
371.866699,-201.066666,61.333332,36.035156
369.733307,-186.0,45.333332,36.039062
367.06665,-198.399994,49.599998,36.042969
375.866669,-186.0,52.399998,36.046875
366.0,-200.400009,55.066666,36.050781
376.266663,-184.799988,48.400002,36.054688
366.0,-195.466675,46.266666,36.058594
369.733307,-201.066666,60.933334,36.066406
374.399994,-184.266663,45.466667,36.070312
373.600006,-202.0,61.599998,36.070312
379.733307,-190.666672,50.533333,36.074219
366.0,-198.266663,56.133331,36.078125
374.933319,-195.466675,57.600002,36.085938
366.933319,-184.266663,45.066666,36.085938
367.599976,-194.533325,52.133331,36.09375
375.333313,-190.666672,50.266666,36.09375
366.533325,-191.466675,44.666668,36.101562
365.200012,-195.466675,58.533333,36.101562
377.200012,-199.599991,53.200001,36.109375
364.933319,-188.533325,55.466667,36.109375
376.799988,-196.933319,48.933334,36.113281
366.533325,-198.133331,47.600002,36.121094
378.399994,-200.93335,61.73333,36.125
380.400024,-196.266663,49.599998,36.128906
366.666687,-190.800003,58.400002,36.128906
377.466675,-195.599991,47.333332,36.132812
368.666656,-192.666656,56.933331,36.136719
378.533325,-192.800003,58.800003,36.144531
364.399994,-193.866669,47.866669,36.144531
372.0,-195.333328,62.266663,36.148438
377.599976,-188.533325,56.933331,36.15625
365.066681,-197.733322,50.0,36.160156
374.666687,-199.333328,61.73333,36.164062
370.0,-185.866669,45.200001,36.167969
364.533356,-199.599991,51.466667,36.171875
376.266663,-187.066666,50.799999,36.179688
366.533325,-183.866669,43.866669,36.179688
368.0,-188.933334,59.066666,36.183594
375.200012,-187.866669,49.200001,36.191406
371.199982,-198.533325,59.866669,36.195312
374.399994,-186.800003,45.066666,36.199219
373.600006,-199.333328,62.533337,36.203125
369.599976,-192.53334,58.400002,36.207031
379.599976,-191.333328,56.0,36.210938
362.533325,-194.933334,49.866669,36.21875
378.93335,-189.866653,53.066669,36.21875
365.733337,-184.133331,46.133331,36.222656
375.200012,-191.066666,61.466667,36.230469
376.133362,-186.0,51.866665,36.230469
367.866669,-200.800003,56.266666,36.238281
380.400024,-198.133331,55.200001,36.242188
362.799988,-188.266663,52.133331,36.246094
380.266693,-197.866669,51.066666,36.25
365.200012,-188.933334,58.400002,36.253906
375.466644,-191.733337,51.466667,36.257812
368.266663,-195.200012,56.266666,36.261719
379.466675,-192.800003,60.0,36.265625
364.399994,-191.066666,47.066666,36.273438
366.933319,-188.799988,56.0,36.277344
377.733337,-196.933319,47.733337,36.28125
369.866669,-189.333328,60.799999,36.285156
375.466644,-196.266663,45.733334,36.289062
369.199982,-201.066666,58.26667,36.292969
374.533356,-185.333328,46.266666,36.296875
372.93335,-200.666672,62.266663,36.300781
380.533325,-198.266663,55.066666,36.304688
369.199982,-190.266663,46.399998,36.3125
372.400024,-194.400009,61.066666,36.316406
371.333344,-190.93335,45.333332,36.316406
374.533356,-194.266663,62.399998,36.324219
377.599976,-199.333328,56.799999,36.328125
365.466644,-186.0,49.599998,36.332031
377.333344,-197.866669,51.066666,36.332031
368.800018,-190.800003,57.866669,36.339844
374.933319,-201.733337,61.866665,36.34375
378.666656,-197.600006,50.933334,36.34375
366.399994,-188.533325,59.066666,36.351562
376.933319,-197.199997,46.533333,36.355469
365.866669,-186.133331,44.0,36.363281
379.199982,-199.466675,58.933334,36.363281
363.333313,-186.266663,48.26667,36.371094
371.466675,-189.06665,60.799999,36.375
371.733337,-187.199997,45.466667,36.378906
364.266663,-187.199997,50.799999,36.382812
380.400024,-196.0,51.73333,36.390625
366.399994,-188.799988,57.733337,36.394531
364.399994,-191.866669,54.933334,36.398438
379.466675,-192.800003,49.066666,36.402344
367.466675,-192.933334,58.800003,36.40625
373.600006,-190.800003,54.533333,36.410156
374.799988,-196.266663,57.199997,36.414062
368.533325,-188.933334,48.26667,36.421875
376.399994,-195.866669,53.200001,36.425781
368.800018,-192.133331,55.333332,36.429688
371.466675,-200.93335,61.066666,36.4375
377.466675,-197.600006,51.466667,36.441406
367.466675,-189.333328,56.399998,36.445312
375.733337,-188.399994,57.199997,36.449219
379.06665,-197.866669,52.266663,36.457031
371.733337,-195.733337,47.199997,36.460938
372.0,-199.733337,60.400002,36.464844
372.133331,-183.733337,45.733334,36.464844
366.933319,-190.400009,58.133335,36.476562
373.733337,-189.466675,54.400002,36.476562
370.0,-185.466675,44.400002,36.484375
376.666687,-198.133331,61.599998,36.488281
376.0,-190.400009,46.533333,36.492188
369.733307,-191.866669,54.400002,36.496094
374.666687,-192.0,50.400002,36.5
367.866669,-191.866669,46.799999,36.503906
368.399994,-189.333328,55.066666,36.511719
375.600006,-189.06665,58.666668,36.515625
367.866669,-196.666656,48.533333,36.515625
378.0,-190.0,53.600002,36.519531
368.399994,-184.133331,47.199997,36.527344
377.333344,-199.733337,56.399998,36.53125
366.266663,-185.866669,51.199997,36.535156
376.533325,-199.466675,53.733334,36.539062
371.466675,-186.666656,45.466667,36.546875
374.0,-198.533325,61.066666,36.546875
369.06665,-187.333344,45.200001,36.554688
375.866669,-197.600006,60.0,36.558594
372.93335,-193.066681,52.933334,36.5625
369.599976,-191.733337,46.666664,36.566406
375.866669,-192.933334,58.800003,36.570312
366.533325,-192.399994,48.933334,36.578125
366.399994,-186.666656,53.333336,36.582031
377.466675,-198.666672,50.799999,36.585938
368.399994,-187.46666,57.333332,36.589844
372.666656,-186.133331,56.133331,36.59375
377.599976,-195.333328,51.73333,36.601562
371.733337,-193.066681,50.666664,36.605469
372.533325,-189.333328,55.200001,36.609375
370.93335,-195.866669,52.133331,36.613281
375.066681,-190.93335,57.733337,36.617188
374.933319,-188.399994,48.0,36.621094
370.666656,-197.066666,59.200001,36.625
373.200012,-188.799988,47.466663,36.628906
370.400024,-198.533325,50.533333,36.636719
375.066681,-185.866669,52.933334,36.640625
369.333344,-198.399994,56.399998,36.644531
374.666687,-188.666672,48.533333,36.648438
372.799988,-197.866669,48.26667,36.65625
371.600006,-200.400009,57.466663,36.660156
372.799988,-184.933334,48.26667,36.660156
367.333344,-186.399994,53.466667,36.667969
372.400024,-200.266663,59.066666,36.671875
375.733337,-197.333344,53.600002,36.675781
371.06665,-197.866669,49.466667,36.679688
370.266693,-200.0,57.733337,36.683594
371.600006,-187.333344,56.266666,36.6875
371.600006,-184.400009,47.600002,36.695312
368.93335,-186.133331,53.733334,36.699219
370.666656,-184.799988,57.199997,36.703125
369.866669,-186.0,47.333332,36.707031
368.0,-186.933319,55.599998,36.710938
375.600006,-197.866669,50.133331,36.714844
371.866699,-199.466675,52.800003,36.71875
368.133301,-188.533325,55.733334,36.726562
371.466675,-184.533325,54.400002,36.730469
371.866699,-198.799988,55.200001,36.734375
373.866638,-199.466675,57.733337,36.738281
371.06665,-188.666672,52.933334,36.742188
373.466675,-196.0,55.866665,36.746094
375.466644,-197.733322,56.799999,36.75
374.399994,-196.800003,49.066666,36.753906
374.666687,-194.933334,49.866669,36.761719
374.266663,-196.800003,55.066666,36.769531
374.666687,-196.266663,57.466663,36.769531
375.200012,-196.933319,50.933334,36.777344
375.466644,-194.133331,52.133331,36.78125
368.399994,-188.933334,55.066666,36.785156
373.866638,-198.133331,50.0,36.789062
370.133331,-186.800003,54.933334,36.792969
375.733337,-197.199997,54.266666,36.796875
370.266693,-187.066666,54.799999,36.804688
370.800018,-184.666672,54.533333,36.808594
373.333313,-199.199997,53.733334,36.8125
374.666687,-199.333328,53.466667,36.816406
372.266663,-199.333328,55.599998,36.820312
372.93335,-197.199997,51.73333,36.824219
371.866699,-197.333344,53.733334,36.832031
372.266663,-199.333328,54.133335,36.832031
370.533325,-186.666656,53.333336,36.839844
372.400024,-197.600006,53.333336,36.84375
370.533325,-194.666672,51.599998,36.847656
371.866699,-199.333328,55.733334,36.851562
374.533356,-198.266663,53.333336,36.855469
372.799988,-197.199997,52.933334,36.859375
370.93335,-197.866669,55.466667,36.863281
372.533325,-199.466675,55.599998,36.871094
373.200012,-198.266663,52.933334,36.875
369.733307,-196.933319,51.866665,36.878906
373.333313,-189.199997,53.600002,36.882812
373.066681,-198.266663,52.399998,36.886719
372.266663,-187.199997,55.466667,36.894531
370.533325,-195.733337,51.333332,36.894531
372.0,-188.0,54.666668,36.898438
370.266693,-185.466675,50.799999,36.90625
370.93335,-197.600006,55.333332,36.90625
369.599976,-192.933334,52.266663,36.910156
371.466675,-194.666672,54.266666,36.914062
370.666656,-197.46666,54.133335,36.921875
370.93335,-194.533325,50.933334,36.925781
372.93335,-195.866669,55.333332,36.929688
370.133331,-195.733337,53.466667,36.929688
374.533356,-198.133331,51.866665,36.9375
373.866638,-198.666672,55.866665,36.941406
372.400024,-187.600006,52.399998,36.941406
369.866669,-193.199997,53.466667,36.949219
372.400024,-189.599991,53.600002,36.957031
373.066681,-192.266678,51.199997,36.960938
367.599976,-190.266663,52.133331,36.960938
374.0,-197.066666,55.200001,36.96875
374.666687,-195.466675,54.533333,36.96875
373.600006,-198.266663,55.866665,36.976562
372.0,-198.533325,53.866669,36.980469
371.600006,-188.266663,54.400002,36.984375
371.06665,-187.066666,53.866669,36.988281
372.133331,-188.0,53.600002,36.992188
372.799988,-194.799988,55.466667,36.996094
367.200012,-190.133347,53.200001,37.0
372.93335,-191.733337,52.533337,37.003906
375.333313,-195.200012,56.799999,37.007812
372.666656,-197.066666,54.400002,37.011719
370.666656,-198.399994,53.866669,37.015625
371.466675,-186.800003,54.666668,37.023438
370.533325,-185.066666,53.466667,37.023438
369.199982,-188.0,53.333336,37.03125
377.333344,-193.333344,55.333332,37.035156
372.93335,-197.333344,54.0,37.039062
370.93335,-189.333328,53.333336,37.042969
369.199982,-191.200012,51.466667,37.046875
367.06665,-187.46666,51.599998,37.046875
375.866669,-196.133331,56.533333,37.054688
375.733337,-196.800003,53.066669,37.058594
370.0,-198.133331,53.733334,37.0625
374.399994,-198.933334,56.933331,37.066406
372.400024,-186.0,53.866669,37.070312
368.0,-185.733337,53.066669,37.070312
375.066681,-198.133331,54.933334,37.074219
367.200012,-191.733337,51.199997,37.078125
368.266663,-193.199997,51.066666,37.085938
368.0,-190.400009,54.933334,37.089844
373.066681,-186.53334,54.266666,37.09375
370.533325,-199.06665,54.799999,37.097656
368.93335,-199.199997,54.933334,37.101562
370.133331,-184.666672,50.0,37.105469
372.0,-196.933319,56.666664,37.109375
370.133331,-189.733337,51.333332,37.117188
370.133331,-186.53334,49.866669,37.121094
374.0,-193.600006,57.066666,37.125
367.200012,-187.733322,48.26667,37.128906
365.866669,-187.333344,55.066666,37.132812
365.733337,-187.733322,54.0,37.136719
374.799988,-186.800003,56.266666,37.144531
368.266663,-197.333344,54.266666,37.144531
375.066681,-194.799988,58.133335,37.148438
374.666687,-196.133331,57.333332,37.152344
366.666687,-189.333328,49.066666,37.15625
376.133362,-199.199997,58.933334,37.160156
364.0,-184.400009,51.73333,37.164062
373.466675,-188.133331,56.933331,37.167969
366.933319,-198.399994,52.399998,37.171875
372.533325,-197.600006,60.400002,37.171875
369.599976,-191.066666,52.133331,37.175781
368.266663,-196.399994,56.533333,37.179688
373.466675,-191.333328,49.066666,37.1875
371.466675,-197.600006,56.933331,37.1875
371.06665,-184.133331,48.133335,37.191406
369.06665,-197.600006,51.199997,37.195312
377.200012,-186.133331,54.133335,37.203125
369.466675,-187.866669,50.533333,37.207031
373.200012,-194.400009,59.200001,37.207031
372.133331,-192.0,58.26667,37.214844
365.066681,-187.46666,48.533333,37.21875
365.600006,-187.46666,56.399998,37.21875
375.733337,-186.53334,53.333336,37.226562
374.799988,-196.399994,48.933334,37.230469
369.333344,-198.533325,56.0,37.234375
376.399994,-196.53334,56.133331,37.238281
367.866669,-193.333344,54.0,37.242188
367.466675,-189.466675,52.0,37.246094
374.933319,-191.866669,51.199997,37.25
372.266663,-198.133331,58.666668,37.253906
369.333344,-183.46666,47.333332,37.253906
368.266663,-197.333344,52.0,37.261719
374.266663,-200.533325,60.933334,37.265625
367.733337,-187.733322,49.733334,37.265625
375.733337,-194.400009,61.333332,37.269531
375.200012,-193.600006,54.400002,37.273438
369.599976,-196.133331,57.466663,37.277344
369.733307,-183.733337,47.733337,37.28125
365.200012,-185.733337,52.666668,37.285156
374.0,-199.599991,60.533333,37.289062
368.133301,-183.333344,46.0,37.292969
377.06665,-200.0,58.533333,37.296875
371.199982,-195.200012,48.800003,37.296875
364.0,-184.666672,49.733334,37.300781
374.533356,-189.466675,60.533333,37.308594
374.933319,-190.400009,49.599998,37.308594
367.733337,-192.933334,58.933334,37.3125
379.199982,-192.666656,57.600002,37.316406
372.266663,-194.666672,48.133335,37.320312
374.266663,-187.199997,58.133335,37.320312
371.466675,-183.733337,46.666664,37.328125
371.06665,-183.333344,47.066666,37.332031
374.399994,-199.199997,60.400002,37.332031
372.666656,-191.600006,46.399998,37.335938
376.399994,-197.333344,61.199997,37.339844
373.333313,-195.866669,61.199997,37.34375
364.799988,-186.666656,46.266666,37.347656
369.466675,-187.333344,59.733334,37.351562
368.533325,-195.200012,46.666664,37.355469
370.666656,-196.399994,47.066666,37.359375
366.266663,-197.733322,57.199997,37.363281
375.600006,-192.53334,54.533333,37.367188
366.133362,-187.600006,46.266666,37.371094
367.866669,-192.666656,54.133335,37.375
372.266663,-187.733322,49.599998,37.382812
362.533325,-186.800003,49.333336,37.382812
377.733337,-199.06665,52.800003,37.386719
377.733337,-198.133331,53.866669,37.390625
366.666687,-195.599991,48.400002,37.398438
370.533325,-200.0,60.799999,37.398438
370.666656,-187.199997,46.799999,37.402344
371.333344,-189.199997,60.666664,37.40625
367.599976,-192.800003,47.333332,37.410156
364.533356,-193.46666,60.0,37.414062
372.266663,-192.666656,47.733337,37.417969
371.333344,-193.600006,60.400002,37.421875
378.533325,-196.53334,55.333332,37.425781
367.333344,-197.46666,48.800003,37.425781
376.133362,-186.399994,54.266666,37.433594
375.200012,-196.666656,48.0,37.4375
363.733337,-197.733322,55.733334,37.441406
377.06665,-188.666672,47.600002,37.445312
369.599976,-193.733337,60.400002,37.449219
377.333344,-191.200012,58.400002,37.453125
372.266663,-189.866653,47.733337,37.457031
367.866669,-197.866669,59.599998,37.460938
377.599976,-198.533325,56.933331,37.464844
378.800018,-198.0,57.866669,37.472656
369.466675,-196.399994,46.933331,37.476562
376.133362,-187.46666,59.599998,37.480469
372.93335,-185.066666,47.866669,37.484375
369.466675,-189.06665,60.799999,37.492188
370.0,-192.0,45.866665,37.492188
364.0,-192.666656,59.733334,37.496094
374.533356,-193.600006,48.400002,37.5
375.733337,-192.933334,48.133335,37.503906
365.066681,-199.06665,57.466663,37.507812
377.333344,-200.133347,60.0,37.511719
369.06665,-192.800003,46.133331,37.515625
371.06665,-193.600006,46.133331,37.519531
363.866638,-194.666672,59.200001,37.523438
376.399994,-190.666672,47.600002,37.527344
368.93335,-190.533325,62.0,37.527344
370.666656,-187.066666,45.866665,37.535156
377.333344,-199.866653,62.266663,37.539062
364.399994,-183.733337,47.600002,37.539062
377.06665,-196.800003,54.666668,37.542969
373.200012,-183.333344,46.399998,37.546875
366.0,-188.133331,56.266666,37.550781
374.933319,-192.399994,48.933334,37.550781
374.666687,-196.0,62.266663,37.554688
375.200012,-194.666672,57.866669,37.558594
367.333344,-186.800003,45.466667,37.5625
364.399994,-188.799988,60.0,37.566406
374.666687,-185.866669,53.733334,37.566406
374.933319,-185.333328,54.0,37.574219
366.0,-198.799988,60.799999,37.574219
373.600006,-195.333328,58.133335,37.582031
366.799988,-194.400009,56.266666,37.582031
366.133362,-192.399994,54.666668,37.585938
378.399994,-196.133331,61.73333,37.589844
374.799988,-196.133331,46.399998,37.589844
372.93335,-188.399994,62.0,37.59375
369.06665,-182.53334,44.799999,37.597656
375.866669,-200.266663,62.0,37.601562
374.0,-195.466675,48.400002,37.605469
362.799988,-194.0,56.0,37.605469
375.333313,-194.933334,53.466667,37.613281
362.93335,-188.0,46.399998,37.617188
367.733337,-191.200012,61.73333,37.621094
372.133331,-195.200012,46.0,37.621094
362.666656,-186.53334,52.800003,37.625
373.600006,-186.800003,59.733334,37.632812
373.466675,-183.600006,46.399998,37.636719
366.666687,-192.266678,57.600002,37.636719
366.533325,-190.400009,56.399998,37.644531
372.666656,-190.800003,48.0,37.644531
361.466675,-187.733322,52.266663,37.648438
370.666656,-188.0,60.0,37.648438
370.400024,-190.533325,60.799999,37.65625
372.133331,-184.0,47.333332,37.660156
373.200012,-200.800003,63.333336,37.660156
367.466675,-185.066666,46.533333,37.664062
369.06665,-182.666656,45.733334,37.667969
368.0,-188.933334,59.866669,37.671875
369.733307,-190.800003,46.133331,37.675781
364.266663,-191.066666,57.066666,37.679688
374.399994,-195.333328,62.399998,37.683594
363.333313,-186.266663,47.733337,37.6875
377.466675,-197.866669,53.733334,37.6875
365.466644,-194.400009,48.0,37.695312
365.600006,-188.0,58.133335,37.699219
372.266663,-193.066681,47.600002,37.703125
374.933319,-194.933334,62.133331,37.707031
376.133362,-194.533325,51.199997,37.710938
366.0,-188.0,45.733334,37.714844
366.933319,-189.06665,60.799999,37.71875
373.066681,-186.800003,52.133331,37.722656
365.333313,-185.333328,48.933334,37.722656
367.599976,-200.0,59.333336,37.730469
374.133331,-196.53334,57.466663,37.734375
368.0,-192.800003,57.866669,37.738281
377.06665,-196.399994,56.799999,37.742188
369.466675,-193.199997,48.800003,37.75
371.600006,-187.066666,54.266666,37.75
367.599976,-199.866653,57.066666,37.753906
372.666656,-184.666672,46.933331,37.757812
372.799988,-183.333344,48.26667,37.761719
370.266693,-199.866653,61.333332,37.765625
373.733337,-192.53334,49.866669,37.769531
362.133331,-188.799988,52.0,37.773438
370.93335,-194.533325,60.533333,37.777344
376.399994,-197.066666,54.533333,37.777344
363.866638,-188.133331,58.0,37.78125
374.0,-185.733337,55.200001,37.789062
375.066681,-196.53334,48.666668,37.789062
367.466675,-199.06665,55.333332,37.792969
375.600006,-187.866669,48.933334,37.796875
368.666656,-190.533325,52.266663,37.800781
366.133362,-195.733337,61.066666,37.804688
372.799988,-190.800003,47.199997,37.8125
370.266693,-196.133331,59.333336,37.8125
369.333344,-183.733337,46.799999,37.816406
368.93335,-196.266663,50.799999,37.820312
372.0,-184.799988,53.333336,37.824219
365.866669,-184.0,47.600002,37.824219
371.06665,-190.266663,61.199997,37.832031
372.666656,-198.399994,57.733337,37.832031
367.06665,-189.466675,54.266666,37.835938
373.733337,-192.0,60.266666,37.839844
364.0,-189.199997,50.533333,37.839844
370.666656,-194.533325,59.200001,37.84375
368.800018,-184.666672,46.666664,37.847656
373.866638,-199.466675,59.066666,37.851562
371.333344,-196.0,50.133331,37.851562
374.133331,-196.399994,50.0,37.859375
370.666656,-188.133331,60.0,37.863281
375.200012,-188.666672,49.866669,37.867188
368.666656,-192.800003,54.0,37.867188
367.866669,-195.066666,58.533333,37.875
371.733337,-188.799988,52.933334,37.878906
366.666687,-185.333328,50.533333,37.878906
369.333344,-186.399994,58.666668,37.882812
368.93335,-183.733337,48.133335,37.886719
370.133331,-200.0,60.533333,37.890625
370.400024,-186.53334,49.866669,37.894531
370.93335,-190.533325,59.066666,37.894531
372.133331,-195.333328,56.266666,37.902344
367.733337,-189.866653,49.200001,37.90625
373.466675,-196.666656,57.866669,37.90625
372.400024,-196.933319,49.200001,37.910156
373.866638,-196.0,49.466667,37.914062
371.06665,-199.333328,55.733334,37.917969
372.133331,-184.266663,49.599998,37.921875
369.466675,-190.93335,55.200001,37.925781
368.399994,-195.599991,57.866669,37.933594
371.333344,-189.733337,50.666664,37.9375
372.400024,-196.399994,60.133331,37.9375
373.333313,-197.199997,53.466667,37.945312
365.733337,-184.400009,49.066666,37.949219
370.0,-199.06665,57.199997,37.953125
368.666656,-193.866669,49.466667,37.957031
373.066681,-192.666656,57.733337,37.957031
370.800018,-191.066666,52.399998,37.964844
372.400024,-196.133331,58.0,37.96875
373.066681,-197.333344,55.466667,37.972656
368.800018,-186.133331,55.466667,37.976562
372.533325,-197.066666,57.466663,37.980469
368.399994,-184.799988,52.266663,37.984375
370.666656,-196.0,54.666668,37.988281
372.133331,-191.466675,56.799999,37.988281
372.799988,-187.199997,53.733334,37.992188
371.866699,-190.400009,54.266666,37.996094
369.866669,-190.400009,54.133335,38.0
366.399994,-185.333328,50.533333,38.003906
367.466675,-187.866669,55.733334,38.011719
372.266663,-198.799988,52.133331,38.011719
369.599976,-197.066666,57.733337,38.015625
372.266663,-188.0,51.73333,38.019531
370.400024,-196.399994,56.133331,38.027344
368.133301,-191.333328,55.466667,38.027344
367.866669,-188.133331,49.599998,38.03125
366.933319,-186.800003,55.466667,38.035156
369.06665,-185.333328,51.599998,38.042969
370.133331,-184.799988,54.799999,38.042969
369.599976,-188.133331,56.0,38.046875
372.400024,-188.666672,51.466667,38.050781
370.533325,-196.399994,52.800003,38.054688
368.533325,-192.933334,55.466667,38.058594
368.533325,-187.600006,51.199997,38.0625
371.733337,-198.399994,56.799999,38.066406
372.266663,-197.333344,57.066666,38.070312
367.06665,-184.533325,52.0,38.074219
369.466675,-196.933319,54.133335,38.078125
373.200012,-190.533325,54.0,38.078125
371.866699,-187.46666,54.533333,38.085938
371.06665,-190.0,56.799999,38.085938
371.06665,-191.200012,54.0,38.09375
373.733337,-196.933319,56.266666,38.09375
364.533356,-188.799988,54.533333,38.097656
372.0,-198.399994,53.733334,38.101562
370.666656,-197.866669,55.333332,38.105469
370.400024,-188.0,52.266663,38.109375
372.533325,-197.866669,55.866665,38.117188
371.466675,-187.199997,53.733334,38.117188
370.93335,-193.199997,55.599998,38.121094
371.733337,-191.600006,51.73333,38.125
373.200012,-191.466675,55.466667,38.128906
370.400024,-192.53334,55.333332,38.132812
373.466675,-195.866669,57.600002,38.132812
366.399994,-184.799988,53.600002,38.136719
366.933319,-184.666672,53.333336,38.140625
367.200012,-184.533325,54.933334,38.144531
372.799988,-188.133331,54.666668,38.144531
371.866699,-190.666672,53.733334,38.152344
366.666687,-194.666672,54.133335,38.15625
370.400024,-190.0,52.800003,38.15625
368.133301,-189.466675,56.133331,38.164062
370.800018,-197.066666,53.333336,38.164062
366.0,-185.733337,53.066669,38.167969
372.799988,-185.466675,55.066666,38.171875
367.866669,-185.200012,52.666668,38.175781
369.866669,-190.0,58.0,38.179688
369.466675,-186.666656,54.933334,38.183594
375.466644,-190.93335,54.266666,38.1875
366.399994,-189.599991,53.733334,38.191406
371.600006,-187.066666,55.333332,38.195312
365.600006,-187.866669,51.73333,38.199219
376.0,-198.0,55.066666,38.203125
368.399994,-197.333344,52.266663,38.207031
369.466675,-195.066666,56.533333,38.210938
374.666687,-186.666656,56.399998,38.214844
366.266663,-194.799988,52.533337,38.222656
372.400024,-190.533325,53.066669,38.222656
368.266663,-194.933334,54.533333,38.226562
375.866669,-191.733337,57.600002,38.230469
369.733307,-193.600006,52.0,38.238281
371.866699,-186.133331,55.599998,38.238281
367.333344,-196.266663,53.600002,38.242188
366.933319,-196.53334,52.933334,38.246094
372.133331,-196.0,57.600002,38.25
367.466675,-189.466675,52.933334,38.253906
372.266663,-188.933334,54.400002,38.253906
372.400024,-190.0,51.333332,38.257812
370.93335,-187.733322,56.933331,38.261719
366.799988,-197.199997,53.333336,38.265625
370.400024,-196.800003,58.0,38.269531
374.799988,-186.133331,54.400002,38.273438
368.800018,-185.066666,51.199997,38.277344
370.93335,-189.599991,56.799999,38.28125
380.93335,-191.466675,55.599998,38.285156
376.0,-188.666672,56.399998,38.289062
369.599976,-186.800003,51.333332,38.292969
371.199982,-193.46666,57.466663,38.296875
367.599976,-186.266663,49.066666,38.296875
368.666656,-189.866653,52.266663,38.304688
373.200012,-192.133331,55.733334,38.304688
369.733307,-193.866669,55.599998,38.308594
377.333344,-195.866669,58.133335,38.3125
376.533325,-194.933334,59.066666,38.320312
363.466675,-188.133331,50.933334,38.324219
369.466675,-187.46666,57.333332,38.328125
369.466675,-196.133331,52.266663,38.332031
364.0,-186.800003,54.266666,38.339844
372.266663,-197.066666,52.133331,38.34375
369.466675,-186.666656,59.466667,38.34375
374.799988,-184.799988,52.533337,38.347656
365.333313,-184.0,52.666668,38.351562
373.333313,-186.53334,58.666668,38.359375
365.866669,-195.066666,51.866665,38.359375
377.06665,-189.06665,55.466667,38.363281
375.466644,-185.733337,57.066666,38.367188
367.733337,-183.46666,49.333336,38.371094
369.866669,-197.46666,60.133331,38.375
367.06665,-187.866669,51.73333,38.378906
367.333344,-197.733322,56.666664,38.382812
375.600006,-198.533325,58.800003,38.386719
368.533325,-193.333344,49.866669,38.390625
365.600006,-192.53334,58.133335,38.394531
364.533356,-194.400009,57.066666,38.398438
373.733337,-188.666672,50.0,38.402344
367.466675,-190.133347,53.466667,38.402344
376.533325,-195.733337,61.199997,38.40625
370.400024,-191.066666,50.0,38.410156
369.866669,-190.533325,59.066666,38.414062
367.333344,-184.666672,48.0,38.417969
363.200012,-184.133331,54.266666,38.417969
361.866699,-186.800003,53.066669,38.425781
376.399994,-196.133331,52.533337,38.429688
367.599976,-194.666672,51.73333,38.429688
374.266663,-184.666672,55.866665,38.4375
373.200012,-194.799988,50.400002,38.441406
371.733337,-187.333344,60.666664,38.441406
364.933319,-194.533325,50.933334,38.445312
377.733337,-189.06665,56.0,38.449219
371.199982,-194.799988,50.533333,38.457031
373.600006,-191.866669,60.799999,38.457031
376.666687,-188.933334,52.666668,38.460938
365.466644,-194.133331,59.200001,38.46875
373.866638,-189.333328,60.533333,38.46875
371.866699,-187.733322,49.200001,38.472656
365.600006,-189.199997,54.400002,38.476562
375.600006,-191.733337,57.466663,38.480469
374.133331,-190.133347,62.266663,38.480469
360.533325,-189.333328,49.333336,38.488281
369.199982,-189.06665,61.599998,38.488281
372.93335,-183.600006,50.400002,38.488281
361.866699,-190.133347,53.066669,38.496094
370.93335,-188.933334,61.333332,38.496094
366.666687,-195.200012,50.0,38.5
372.666656,-199.866653,62.800003,38.503906
373.066681,-198.533325,62.0,38.507812
377.466675,-196.266663,51.73333,38.511719
365.733337,-196.800003,50.933334,38.511719
372.799988,-199.333328,62.666668,38.515625
374.399994,-185.333328,56.933331,38.519531
366.933319,-181.466675,46.399998,38.523438
366.266663,-186.666656,60.0,38.523438
375.733337,-185.733337,57.333332,38.527344
363.600006,-182.800003,47.866669,38.53125
377.200012,-198.266663,58.400002,38.535156
372.400024,-195.066666,47.466663,38.539062
365.466644,-198.133331,58.400002,38.539062
365.600006,-198.266663,57.466663,38.546875
371.600006,-182.53334,49.333336,38.546875
370.266693,-199.199997,63.066669,38.550781
368.800018,-184.666672,46.933331,38.554688
369.06665,-181.600006,47.066666,38.558594
363.733337,-186.53334,57.333332,38.5625
373.333313,-195.333328,50.400002,38.566406
370.800018,-189.466675,61.866665,38.566406
365.200012,-186.399994,61.333332,38.574219
375.600006,-185.599991,54.933334,38.574219
364.266663,-198.133331,55.466667,38.578125
373.333313,-196.266663,60.799999,38.582031
375.733337,-199.599991,62.399998,38.589844
374.0,-195.333328,49.333336,38.589844
371.600006,-188.399994,63.866669,38.59375
364.133331,-191.733337,47.466663,38.59375
372.533325,-200.400009,64.400002,38.601562
368.0,-182.666656,46.666664,38.605469
365.733337,-187.733322,61.333332,38.609375
377.06665,-186.800003,56.133331,38.609375
375.200012,-186.0,57.733337,38.613281
362.666656,-195.866669,55.066666,38.621094
373.866638,-194.400009,60.400002,38.621094
370.800018,-187.866669,47.199997,38.625
365.866669,-197.066666,61.333332,38.628906
374.666687,-192.0,55.333332,38.632812
366.399994,-188.799988,46.0,38.636719
376.799988,-194.133331,61.466667,38.640625
373.200012,-191.866669,51.466667,38.644531
361.333344,-187.866669,48.533333,38.644531
369.599976,-190.133347,63.466667,38.648438
372.133331,-184.933334,49.066666,38.652344
372.533325,-188.133331,51.066666,38.65625
360.666656,-185.466675,48.26667,38.660156
369.06665,-188.0,61.73333,38.660156
372.533325,-183.199997,49.866669,38.667969
372.799988,-186.666656,52.933334,38.667969
363.066681,-184.400009,47.199997,38.671875
377.333344,-198.133331,56.933331,38.675781
362.666656,-184.133331,55.599998,38.679688
372.0,-198.799988,64.666664,38.683594
376.799988,-195.733337,52.0,38.683594
365.600006,-186.53334,61.466667,38.6875
372.533325,-184.400009,56.399998,38.691406
372.666656,-186.133331,57.733337,38.695312
367.200012,-182.0,46.399998,38.699219
362.93335,-185.733337,58.533333,38.699219
374.533356,-195.599991,50.266666,38.703125
364.399994,-182.800003,45.733334,38.707031
375.066681,-198.666672,60.266666,38.707031
363.466675,-184.533325,52.266663,38.710938
376.266663,-196.399994,53.466667,38.714844
369.199982,-182.133331,46.399998,38.71875
373.333313,-199.733337,63.466667,38.722656
365.200012,-183.866669,48.0,38.722656
372.799988,-189.599991,64.0,38.722656
372.533325,-182.53334,47.600002,38.730469
363.066681,-184.133331,54.666668,38.734375
375.333313,-188.533325,60.666664,38.734375
363.733337,-192.266678,51.199997,38.738281
366.933319,-187.733322,61.066666,38.742188
370.0,-191.733337,47.866669,38.746094
363.600006,-192.800003,56.666664,38.746094
371.466675,-191.333328,59.333336,38.75
376.0,-186.933319,50.666664,38.753906
365.733337,-189.06665,52.0,38.753906
372.533325,-188.399994,53.466667,38.757812
368.266663,-196.933319,61.199997,38.757812
366.133362,-192.800003,58.26667,38.761719
371.866699,-185.866669,48.666668,38.765625
372.666656,-198.533325,64.0,38.769531
367.733337,-182.0,46.666664,38.773438
368.0,-188.933334,61.866665,38.773438
371.06665,-194.799988,49.066666,38.777344
368.0,-199.733337,62.533337,38.777344
369.199982,-181.733337,47.066666,38.78125
369.199982,-182.53334,47.600002,38.785156
372.266663,-199.733337,62.266663,38.789062
374.799988,-195.200012,51.066666,38.792969
365.600006,-196.399994,52.0,38.792969
366.133362,-186.399994,60.266666,38.796875
374.533356,-183.600006,55.200001,38.800781
368.93335,-184.0,49.333336,38.804688
368.93335,-188.266663,61.333332,38.804688
365.066681,-185.866669,57.466663,38.808594
373.200012,-195.599991,51.199997,38.8125
369.466675,-187.066666,61.866665,38.816406
375.333313,-184.0,51.599998,38.816406
371.466675,-195.599991,48.800003,38.824219
366.799988,-198.799988,59.333336,38.824219
371.733337,-185.333328,48.933334,38.828125
366.799988,-187.733322,55.333332,38.828125
370.0,-199.466675,61.199997,38.835938
374.799988,-195.733337,56.266666,38.839844
367.333344,-196.266663,49.733334,38.839844
368.93335,-198.533325,60.666664,38.847656
370.666656,-185.200012,59.066666,38.847656
370.533325,-183.199997,48.800003,38.851562
364.533356,-186.0,55.200001,38.855469
369.199982,-185.200012,61.333332,38.859375
374.933319,-196.666656,56.0,38.859375
369.333344,-196.266663,51.599998,38.863281
368.800018,-200.266663,60.933334,38.867188
369.733307,-183.733337,49.333336,38.871094
369.06665,-197.733322,54.400002,38.875
371.06665,-198.266663,61.066666,38.878906
371.600006,-194.666672,50.799999,38.882812
370.533325,-188.399994,60.533333,38.882812
372.400024,-196.933319,57.866669,38.886719
368.93335,-195.200012,50.666664,38.890625
370.800018,-188.399994,59.333336,38.894531
372.133331,-188.799988,50.933334,38.898438
368.533325,-186.53334,57.466663,38.902344
370.93335,-185.333328,57.733337,38.90625
370.666656,-186.266663,49.333336,38.90625
369.599976,-189.333328,58.400002,38.910156
369.866669,-197.199997,59.200001,38.914062
369.06665,-193.600006,51.73333,38.917969
371.199982,-190.93335,58.533333,38.917969
374.533356,-190.133347,54.533333,38.925781
369.733307,-194.0,51.066666,38.925781
370.666656,-189.466675,58.666668,38.929688
371.06665,-186.666656,51.73333,38.933594
366.933319,-193.333344,58.666668,38.933594
370.800018,-193.333344,51.866665,38.941406
366.933319,-192.266678,54.533333,38.945312
367.866669,-194.400009,57.600002,38.945312
368.266663,-192.266678,52.800003,38.949219
371.733337,-194.533325,53.733334,38.953125
369.466675,-188.666672,58.26667,38.957031
371.600006,-188.533325,55.866665,38.957031
369.199982,-187.733322,51.73333,38.960938
370.133331,-196.800003,55.066666,38.964844
370.800018,-186.53334,54.133335,38.96875
368.533325,-196.666656,57.600002,38.972656
367.866669,-193.199997,56.266666,38.972656
370.666656,-184.400009,52.399998,38.976562
370.0,-186.666656,55.200001,38.976562
370.133331,-185.733337,58.0,38.980469
368.0,-194.400009,53.200001,38.984375
369.866669,-185.733337,56.399998,38.988281
371.06665,-195.599991,53.466667,38.992188
368.266663,-186.666656,58.133335,38.992188
370.0,-185.599991,55.333332,38.992188
369.466675,-184.533325,55.866665,39.0
368.133301,-183.333344,51.199997,39.0
368.533325,-185.466675,57.600002,39.003906
369.733307,-196.53334,52.399998,39.007812
372.400024,-195.866669,54.133335,39.011719
370.266693,-198.133331,56.133331,39.015625
370.0,-197.46666,57.733337,39.019531
370.133331,-186.666656,53.466667,39.019531
367.866669,-183.600006,52.666668,39.023438
368.800018,-185.733337,56.533333,39.027344
370.533325,-196.800003,53.200001,39.03125
367.200012,-185.333328,56.133331,39.035156
366.933319,-186.399994,52.133331,39.039062
368.533325,-186.666656,55.333332,39.042969
366.399994,-185.599991,55.200001,39.046875
366.933319,-183.199997,52.666668,39.046875
369.333344,-187.066666,55.866665,39.054688
372.0,-194.666672,54.666668,39.058594
374.133331,-196.800003,57.733337,39.058594
370.266693,-197.600006,56.266666,39.0625
371.733337,-195.066666,56.933331,39.066406
370.0,-196.399994,54.533333,39.066406
372.93335,-197.066666,58.26667,39.070312
369.06665,-197.600006,55.733334,39.074219
366.533325,-184.933334,53.866669,39.078125
374.399994,-198.0,58.0,39.078125
366.799988,-183.333344,53.733334,39.082031
370.133331,-183.600006,56.533333,39.085938
369.466675,-185.866669,56.0,39.09375
366.666687,-184.533325,53.866669,39.09375
367.333344,-182.933334,53.733334,39.09375
372.266663,-197.066666,55.733334,39.097656
367.06665,-184.0,53.733334,39.101562
372.133331,-198.666672,57.733337,39.105469
368.93335,-196.933319,54.533333,39.109375
368.133301,-195.333328,54.266666,39.109375
369.733307,-195.866669,55.066666,39.117188
371.199982,-184.0,56.266666,39.117188
368.133301,-197.199997,55.733334,39.121094
373.466675,-196.399994,57.866669,39.125
374.533356,-198.0,58.800003,39.128906
368.800018,-196.266663,52.933334,39.132812
372.93335,-186.666656,57.333332,39.136719
365.733337,-194.533325,52.933334,39.136719
367.733337,-195.733337,54.266666,39.144531
375.066681,-187.066666,58.26667,39.144531
366.0,-192.800003,55.066666,39.148438
371.600006,-193.46666,58.0,39.152344
374.0,-186.133331,54.0,39.15625
368.0,-185.866669,53.333336,39.160156
371.733337,-192.933334,57.066666,39.164062
367.200012,-191.200012,55.866665,39.164062
375.333313,-186.53334,56.933331,39.167969
368.93335,-186.399994,52.133331,39.171875
368.93335,-191.200012,58.26667,39.175781
367.06665,-188.933334,50.799999,39.179688
370.266693,-194.0,52.399998,39.183594
364.933319,-194.0,54.666668,39.183594
370.133331,-195.333328,59.066666,39.1875
367.200012,-189.466675,53.066669,39.1875
366.399994,-197.199997,56.533333,39.195312
374.133331,-197.199997,59.599998,39.199219
365.466644,-187.066666,54.400002,39.199219
372.533325,-188.266663,60.266666,39.203125
377.06665,-197.333344,57.066666,39.207031
365.733337,-192.0,51.73333,39.207031
366.133362,-194.933334,58.933334,39.214844
373.333313,-194.133331,56.399998,39.214844
368.93335,-183.333344,51.199997,39.21875
364.933319,-183.46666,52.800003,39.21875
372.533325,-187.46666,60.0,39.222656
371.466675,-183.333344,50.666664,39.222656
368.0,-195.599991,52.533337,39.226562
368.666656,-198.666672,59.599998,39.230469
374.666687,-196.266663,57.600002,39.234375
367.466675,-196.0,50.533333,39.238281
372.799988,-198.666672,60.533333,39.238281
364.399994,-182.133331,50.400002,39.242188
366.399994,-185.466675,58.933334,39.246094
373.333313,-184.400009,57.199997,39.246094
371.06665,-194.666672,51.599998,39.25
365.733337,-196.53334,55.333332,39.253906
371.733337,-184.666672,54.266666,39.253906
367.599976,-198.533325,59.599998,39.257812
366.666687,-192.933334,57.333332,39.261719
374.933319,-195.599991,61.73333,39.265625
372.799988,-192.666656,50.933334,39.269531
369.06665,-188.533325,60.133331,39.269531
367.200012,-192.399994,61.599998,39.273438
369.466675,-188.133331,49.866669,39.277344
367.333344,-191.333328,58.400002,39.28125
376.933319,-192.0,60.400002,39.285156
373.733337,-187.866669,61.333332,39.285156
362.93335,-193.066681,50.666664,39.289062
374.266663,-187.600006,59.066666,39.292969
369.333344,-183.333344,48.933334,39.292969
369.599976,-181.866669,49.599998,39.296875
361.333344,-183.46666,54.933334,39.304688
372.400024,-186.266663,61.333332,39.304688
370.400024,-182.666656,49.333336,39.304688
371.199982,-183.333344,50.799999,39.308594
361.333344,-183.866669,51.73333,39.3125
370.0,-185.333328,62.800003,39.316406
367.333344,-195.466675,49.066666,39.316406
374.133331,-196.133331,63.733334,39.320312
376.0,-192.0,54.266666,39.324219
365.200012,-192.800003,50.533333,39.328125
373.066681,-187.333344,57.733337,39.328125
372.93335,-191.200012,60.133331,39.332031
365.200012,-190.93335,52.0,39.335938
373.200012,-191.600006,55.599998,39.335938
364.533356,-191.200012,58.133335,39.339844
362.799988,-184.400009,54.533333,39.34375
370.133331,-186.53334,63.733334,39.347656
373.333313,-183.866669,51.466667,39.347656
362.533325,-183.199997,50.400002,39.347656
366.533325,-195.466675,59.466667,39.355469
377.866669,-194.400009,62.933334,39.355469
375.333313,-190.133347,50.799999,39.359375
364.933319,-190.0,52.933334,39.363281
366.533325,-198.399994,61.73333,39.367188
377.333344,-198.666672,60.533333,39.367188
372.666656,-195.466675,50.133331,39.371094
365.333313,-196.933319,56.0,39.375
364.399994,-195.733337,61.73333,39.378906
373.733337,-183.600006,48.933334,39.382812
369.06665,-197.600006,65.333336,39.386719
374.666687,-194.266663,53.866669,39.386719
369.599976,-182.133331,47.733337,39.390625
371.333344,-198.266663,65.599998,39.394531
365.333313,-182.399994,46.266666,39.394531
360.133331,-188.533325,59.733334,39.398438
372.0,-189.599991,64.666664,39.40625
376.0,-186.133331,54.0,39.40625
366.666687,-181.733337,46.933331,39.410156
364.266663,-186.800003,61.599998,39.414062
372.266663,-185.866669,53.066669,39.417969
366.666687,-194.533325,59.066666,39.417969
376.799988,-194.799988,62.666668,39.421875
375.066681,-190.93335,50.0,39.425781
365.333313,-186.399994,58.800003,39.429688
373.200012,-185.599991,61.333332,39.429688
372.0,-182.666656,48.533333,39.4375
361.199982,-184.400009,50.933334,39.4375
361.866699,-187.600006,48.0,39.441406
376.933319,-192.0,59.866669,39.445312
372.400024,-186.53334,48.400002,39.449219
369.733307,-194.133331,64.26667,39.453125
376.0,-185.066666,58.0,39.453125
367.599976,-181.066666,48.0,39.457031
362.0,-185.866669,58.0,39.460938
372.266663,-187.199997,61.333332,39.464844
366.0,-182.933334,46.533333,39.46875
363.066681,-187.46666,60.400002,39.46875
371.733337,-189.466675,59.866669,39.476562
369.733307,-186.53334,47.600002,39.476562
373.333313,-193.46666,51.199997,39.480469
366.266663,-186.53334,62.933334,39.484375
372.799988,-195.466675,49.333336,39.484375
364.533356,-198.533325,55.733334,39.488281
365.866669,-188.0,63.866669,39.492188
372.666656,-188.0,56.266666,39.496094
366.799988,-194.933334,57.600002,39.496094
374.533356,-194.0,63.600002,39.5
371.466675,-183.066681,48.0,39.503906
363.466675,-185.333328,57.066666,39.507812
372.400024,-185.599991,63.200001,39.511719
365.200012,-194.666672,50.266666,39.511719
373.066681,-196.666656,65.333336,39.515625
363.466675,-183.600006,47.866669,39.519531
364.399994,-189.599991,61.73333,39.523438
373.733337,-191.466675,50.400002,39.523438
365.466644,-191.866669,49.066666,39.53125
366.533325,-196.933319,63.600002,39.53125
373.466675,-193.600006,56.533333,39.53125
365.200012,-186.266663,56.266666,39.535156
370.533325,-198.799988,64.26667,39.539062
376.933319,-195.466675,58.0,39.542969
361.199982,-187.46666,54.933334,39.542969
376.399994,-191.866669,55.200001,39.546875
374.799988,-185.733337,57.333332,39.550781
369.199982,-182.0,47.733337,39.554688
364.399994,-185.200012,58.933334,39.554688
372.266663,-185.200012,61.066666,39.558594
369.199982,-187.866669,62.399998,39.5625
371.333344,-185.466675,51.466667,39.566406
369.333344,-192.933334,61.466667,39.566406
374.933319,-190.266663,59.333336,39.570312
374.133331,-194.799988,52.800003,39.574219
367.333344,-195.200012,50.933334,39.574219
370.133331,-199.06665,63.733334,39.582031
376.133362,-196.0,57.733337,39.582031
374.666687,-190.666672,60.266666,39.589844
362.400024,-189.599991,54.266666,39.589844
368.133301,-191.600006,62.533337,39.59375
368.666656,-189.466675,49.066666,39.59375
369.333344,-182.266678,49.466667,39.597656
371.466675,-198.266663,63.200001,39.601562
374.266663,-195.866669,52.399998,39.605469
365.466644,-185.200012,60.666664,39.609375
369.733307,-186.53334,53.733334,39.613281
363.466675,-185.866669,50.0,39.613281
375.466644,-194.799988,60.0,39.617188
373.066681,-191.866669,50.266666,39.621094
369.733307,-190.400009,61.599998,39.621094
374.399994,-187.199997,57.866669,39.625
365.466644,-195.200012,55.599998,39.628906
371.466675,-183.600006,55.066666,39.628906
372.799988,-193.46666,51.466667,39.632812
367.599976,-194.133331,56.799999,39.632812
371.06665,-193.866669,63.333336,39.636719
375.066681,-189.599991,53.200001,39.640625
368.399994,-192.53334,50.133331,39.640625
370.0,-187.199997,61.333332,39.648438
372.533325,-182.399994,52.399998,39.648438
368.533325,-197.600006,61.333332,39.648438
367.599976,-186.666656,60.0,39.652344
368.666656,-184.533325,51.599998,39.65625
371.06665,-194.666672,61.599998,39.660156
367.333344,-184.933334,50.933334,39.660156
369.733307,-191.866669,52.266663,39.664062
368.666656,-186.800003,59.733334,39.667969
369.866669,-183.866669,56.933331,39.667969
367.06665,-197.066666,57.199997,39.671875
366.666687,-184.799988,60.133331,39.675781
369.599976,-184.666672,55.599998,39.679688
366.799988,-186.399994,50.400002,39.679688
366.0,-188.933334,58.26667,39.683594
366.799988,-193.46666,57.066666,39.6875
372.400024,-184.400009,54.400002,39.691406
369.06665,-183.866669,53.866669,39.691406
368.133301,-184.933334,59.466667,39.695312
369.06665,-184.933334,54.0,39.699219
366.533325,-188.0,52.666668,39.703125
366.0,-189.199997,58.933334,39.707031
369.199982,-186.800003,55.066666,39.710938
371.06665,-184.133331,52.533337,39.714844
369.466675,-196.53334,59.333336,39.71875
369.06665,-183.46666,53.066669,39.71875
368.93335,-196.399994,59.599998,39.722656
369.733307,-183.333344,56.666664,39.726562
366.799988,-183.866669,50.933334,39.730469
367.333344,-187.333344,58.0,39.734375
367.200012,-188.266663,57.066666,39.734375
367.733337,-194.400009,58.533333,39.738281
369.199982,-186.133331,55.200001,39.742188
369.06665,-185.333328,58.26667,39.746094
367.06665,-193.866669,52.933334,39.746094
369.333344,-183.733337,55.066666,39.75
366.933319,-184.799988,57.600002,39.753906
371.866699,-194.266663,53.866669,39.753906
372.666656,-196.933319,58.666668,39.757812
366.933319,-192.266678,59.066666,39.765625
370.0,-192.800003,56.266666,39.765625
368.800018,-192.933334,53.600002,39.769531
369.599976,-194.933334,59.200001,39.773438
366.533325,-184.133331,57.066666,39.773438
367.466675,-183.733337,53.200001,39.777344
369.866669,-195.866669,59.200001,39.78125
372.400024,-194.933334,58.133335,39.785156
370.533325,-186.933319,57.333332,39.785156
369.733307,-186.0,54.0,39.789062
369.466675,-195.333328,58.0,39.792969
368.133301,-194.0,56.133331,39.796875
371.06665,-195.733337,56.933331,39.796875
370.0,-184.400009,56.799999,39.800781
366.933319,-184.799988,56.133331,39.800781
372.666656,-195.466675,57.466663,39.804688
370.800018,-188.799988,56.0,39.808594
365.733337,-190.93335,56.266666,39.8125
372.93335,-191.333328,57.866669,39.8125
369.06665,-187.866669,56.799999,39.816406
369.199982,-183.600006,56.933331,39.820312
369.866669,-196.133331,55.200001,39.824219
367.200012,-182.933334,54.400002,39.824219
366.666687,-181.866669,54.799999,39.828125
370.93335,-190.266663,55.333332,39.832031
374.266663,-190.93335,58.533333,39.835938
368.666656,-188.266663,55.866665,39.835938
370.0,-185.599991,54.666668,39.839844
370.0,-196.53334,56.933331,39.84375
374.533356,-196.0,57.866669,39.84375
369.06665,-196.133331,56.266666,39.847656
368.133301,-185.333328,56.799999,39.851562
373.866638,-190.800003,57.733337,39.855469
366.399994,-189.599991,55.066666,39.855469
371.600006,-187.199997,55.466667,39.859375
368.666656,-186.0,54.933334,39.859375
369.199982,-195.333328,56.666664,39.867188
374.133331,-196.133331,59.333336,39.867188
370.800018,-195.866669,54.533333,39.871094
369.199982,-196.399994,56.399998,39.875
366.0,-186.399994,56.0,39.878906
370.266693,-188.266663,56.933331,39.882812
365.600006,-189.733337,54.0,39.882812
366.133362,-190.533325,55.733334,39.886719
372.533325,-195.066666,57.466663,39.890625
367.333344,-184.666672,55.333332,39.894531
371.866699,-185.066666,58.666668,39.898438
368.666656,-183.46666,54.266666,39.902344
370.0,-191.600006,55.866665,39.902344
370.0,-188.133331,59.333336,39.90625
369.599976,-192.666656,56.799999,39.910156
370.0,-188.0,57.466663,39.910156
370.666656,-184.0,54.400002,39.914062
368.533325,-196.399994,57.199997,39.921875
373.600006,-195.866669,57.333332,39.921875
366.399994,-193.600006,54.400002,39.921875
370.533325,-194.666672,53.600002,39.929688
368.800018,-195.066666,58.0,39.929688
368.800018,-184.933334,53.866669,39.933594
362.133331,-185.733337,52.933334,39.9375
370.400024,-195.733337,60.533333,39.9375
370.533325,-192.666656,53.600002,39.941406
365.466644,-192.0,54.933334,39.945312
374.666687,-186.933319,57.333332,39.945312
364.399994,-181.466675,53.066669,39.949219
367.599976,-184.799988,59.066666,39.953125
370.266693,-194.533325,52.399998,39.953125
367.866669,-194.666672,58.933334,39.957031
367.599976,-192.800003,60.400002,39.960938
369.199982,-185.333328,52.133331,39.964844
370.533325,-196.0,60.533333,39.964844
364.933319,-183.733337,53.200001,39.96875
366.666687,-195.333328,56.666664,39.972656
372.400024,-197.46666,62.533337,39.976562
364.533356,-183.866669,51.866665,39.976562
365.866669,-189.599991,58.533333,39.976562
372.799988,-186.800003,61.466667,39.984375
373.200012,-185.599991,52.533337,39.984375
367.599976,-195.866669,60.266666,39.988281
373.333313,-196.133331,58.133335,39.988281
369.599976,-181.466675,51.466667,39.992188
369.866669,-196.933319,62.0,39.996094
364.399994,-181.600006,51.333332,40.0
363.066681,-185.733337,57.333332,40.0
362.0,-188.533325,55.333332,40.007812
370.533325,-191.600006,61.866665,40.007812
370.266693,-188.799988,53.466667,40.011719
362.666656,-189.599991,53.466667,40.015625
365.466644,-193.733337,52.800003,40.019531
368.266663,-197.733322,62.133331,40.019531
367.06665,-180.93335,50.799999,40.023438
362.93335,-183.333344,56.933331,40.023438
372.533325,-188.266663,59.333336,40.027344
364.933319,-191.600006,56.399998,40.03125
370.800018,-186.266663,54.666668,40.035156
362.533325,-185.466675,51.199997,40.035156
369.06665,-195.200012,59.733334,40.039062
373.200012,-193.333344,55.599998,40.042969
365.466644,-184.799988,60.533333,40.042969
371.466675,-194.0,52.800003,40.046875
376.666687,-192.399994,55.866665,40.050781
362.666656,-187.866669,59.599998,40.054688
372.799988,-190.800003,59.733334,40.054688
368.800018,-188.399994,50.133331,40.058594
364.799988,-182.53334,51.599998,40.0625
367.333344,-185.200012,63.200001,40.0625
370.800018,-193.46666,50.933334,40.066406
364.799988,-197.733322,58.800003,40.070312
365.066681,-192.399994,55.866665,40.074219
372.400024,-194.799988,65.199997,40.074219
377.06665,-189.199997,54.933334,40.078125
362.400024,-190.533325,61.199997,40.078125
373.733337,-187.733322,64.400002,40.082031
365.200012,-192.399994,49.866669,40.085938
374.799988,-185.066666,62.266663,40.089844
370.533325,-181.333328,50.666664,40.089844
370.533325,-182.800003,50.933334,40.09375
370.533325,-194.666672,63.866669,40.09375
378.266663,-192.266678,59.599998,40.097656
359.199982,-189.333328,56.133331,40.101562
369.199982,-187.46666,63.733334,40.105469
375.066681,-184.0,58.0,40.105469
366.533325,-182.666656,49.200001,40.109375
372.799988,-198.133331,64.533333,40.109375
371.199982,-191.200012,50.400002,40.113281
369.466675,-189.06665,64.133331,40.117188
372.400024,-187.199997,53.600002,40.117188
361.466675,-187.600006,50.0,40.117188
362.799988,-184.0,57.466663,40.121094
376.0,-195.066666,53.466667,40.125
366.133362,-194.0,49.866669,40.125
372.93335,-184.133331,59.599998,40.128906
376.399994,-189.466675,54.266666,40.132812
363.600006,-190.666672,63.200001,40.132812
373.733337,-186.933319,50.799999,40.136719
367.733337,-191.600006,64.400002,40.140625
374.666687,-194.266663,52.666668,40.140625
362.400024,-194.799988,52.666668,40.144531
372.266663,-182.800003,56.399998,40.144531
365.866669,-179.599991,48.26667,40.148438
363.866638,-189.866653,64.133331,40.152344
372.666656,-187.733322,55.066666,40.15625
366.266663,-193.199997,60.266666,40.15625
376.799988,-192.933334,63.200001,40.15625
375.066681,-194.400009,55.599998,40.160156
364.666687,-186.0,60.666664,40.164062
375.200012,-193.600006,52.266663,40.164062
369.199982,-187.733322,64.400002,40.167969
371.733337,-180.93335,51.199997,40.167969
360.400024,-183.333344,50.400002,40.171875
366.533325,-187.066666,65.066666,40.175781
369.733307,-191.333328,49.066666,40.175781
371.199982,-191.600006,65.466667,40.179688
375.600006,-187.066666,56.666664,40.183594
368.266663,-183.066681,48.0,40.183594
365.466644,-187.199997,61.866665,40.1875
360.533325,-183.866669,56.933331,40.1875
371.06665,-186.933319,63.333336,40.191406
371.600006,-183.733337,50.933334,40.195312
361.333344,-186.133331,51.333332,40.195312
372.400024,-194.400009,64.400002,40.199219
371.600006,-191.866669,51.73333,40.203125
366.666687,-185.866669,64.800003,40.207031
372.666656,-183.199997,58.0,40.207031
376.0,-190.533325,52.666668,40.210938
363.733337,-191.733337,53.866669,40.214844
372.266663,-185.333328,54.400002,40.214844
363.600006,-183.066681,46.666664,40.21875
367.200012,-187.733322,48.26667,40.21875
373.066681,-191.066666,64.533333,40.222656
375.466644,-185.066666,50.533333,40.226562
364.399994,-183.866669,52.266663,40.226562
365.866669,-197.066666,61.466667,40.230469
376.133362,-197.066666,62.133331,40.234375
373.200012,-192.399994,50.799999,40.234375
367.599976,-187.199997,65.199997,40.238281
374.266663,-187.866669,62.266663,40.242188
361.333344,-190.800003,54.133335,40.242188
370.0,-195.200012,66.266663,40.246094
368.133301,-181.733337,48.26667,40.246094
364.133331,-195.599991,55.866665,40.25
373.866638,-197.866669,66.133331,40.253906
376.0,-194.666672,53.200001,40.257812
364.799988,-186.133331,63.066669,40.257812
374.933319,-191.866669,65.333336,40.261719
375.600006,-186.933319,52.0,40.261719
364.666687,-185.733337,52.0,40.265625
369.733307,-187.733322,66.0,40.269531
375.333313,-196.800003,62.800003,40.269531
361.333344,-182.133331,52.266663,40.273438
374.666687,-195.733337,56.266666,40.277344
368.133301,-193.333344,50.933334,40.277344
371.199982,-188.533325,50.0,40.277344
365.066681,-190.666672,60.933334,40.28125
375.466644,-189.333328,61.866665,40.285156
373.866638,-184.533325,50.266666,40.285156
372.0,-181.066666,53.066669,40.289062
368.266663,-198.266663,63.733334,40.289062
376.533325,-195.466675,60.666664,40.292969
372.666656,-191.866669,50.266666,40.296875
360.266693,-188.0,52.133331,40.296875
366.133362,-192.53334,65.066666,40.300781
372.533325,-191.200012,54.933334,40.300781
366.533325,-188.799988,61.199997,40.304688
362.799988,-182.800003,57.600002,40.308594
374.533356,-194.133331,54.400002,40.308594
363.466675,-184.666672,62.133331,40.316406
372.533325,-193.199997,52.0,40.316406
365.066681,-186.800003,49.733334,40.320312
365.200012,-192.53334,62.533337,40.324219
373.466675,-186.133331,50.933334,40.324219
366.666687,-193.199997,64.666664,40.328125
367.599976,-197.866669,63.600002,40.328125
374.666687,-196.399994,59.466667,40.332031
369.466675,-193.46666,49.866669,40.332031
367.333344,-198.533325,63.333336,40.339844
368.666656,-186.266663,63.066669,40.339844
370.266693,-185.466675,52.666668,40.34375
363.200012,-181.733337,53.333336,40.34375
375.600006,-189.866653,59.333336,40.347656
368.133301,-182.0,50.933334,40.351562
373.600006,-196.133331,61.866665,40.355469
370.800018,-192.800003,51.333332,40.355469
370.266693,-185.066666,64.400002,40.359375
368.93335,-180.93335,50.133331,40.359375
363.200012,-184.533325,56.666664,40.363281
369.333344,-185.200012,61.866665,40.367188
369.466675,-182.666656,51.466667,40.371094
369.199982,-187.333344,51.333332,40.371094
368.133301,-191.466675,61.73333,40.375
369.866669,-189.733337,51.333332,40.375
369.333344,-188.0,64.133331,40.378906
365.200012,-184.799988,61.73333,40.378906
370.93335,-183.600006,57.866669,40.382812
367.333344,-182.800003,49.466667,40.386719
363.200012,-187.333344,58.533333,40.390625
370.93335,-189.466675,64.133331,40.394531
374.666687,-186.800003,55.200001,40.394531
368.399994,-183.600006,50.666664,40.398438
367.466675,-187.199997,62.0,40.398438
371.199982,-181.466675,53.733334,40.402344
364.399994,-181.866669,51.73333,40.40625
374.666687,-194.799988,61.466667,40.410156
363.600006,-185.333328,54.266666,40.410156
368.93335,-189.466675,62.800003,40.410156
374.133331,-188.133331,59.066666,40.414062
371.06665,-183.46666,51.599998,40.417969
365.066681,-185.066666,59.066666,40.417969
363.733337,-183.066681,55.200001,40.421875
375.466644,-193.333344,58.400002,40.421875
364.933319,-184.933334,60.266666,40.425781
369.733307,-184.533325,59.733334,40.429688
366.399994,-187.866669,51.599998,40.433594
365.200012,-193.46666,61.333332,40.433594
371.733337,-185.599991,52.800003,40.4375
368.266663,-186.133331,56.399998,40.4375
368.93335,-197.199997,62.0,40.4375
373.866638,-196.399994,60.533333,40.445312
370.0,-192.666656,52.800003,40.445312
366.666687,-185.866669,60.400002,40.449219
366.533325,-192.933334,62.133331,40.453125
370.93335,-190.266663,56.0,40.453125
369.599976,-188.399994,60.400002,40.457031
372.266663,-186.0,60.133331,40.457031
372.93335,-194.666672,56.533333,40.464844
369.333344,-193.866669,55.599998,40.464844
368.666656,-182.266678,58.533333,40.46875
367.599976,-182.0,51.599998,40.46875
366.133362,-187.46666,60.400002,40.472656
372.266663,-188.266663,52.533337,40.476562
370.0,-189.733337,59.066666,40.476562
370.133331,-190.266663,56.133331,40.480469
368.800018,-195.333328,57.600002,40.484375
369.333344,-197.066666,61.199997,40.484375
368.800018,-182.666656,53.333336,40.488281
367.866669,-183.600006,60.133331,40.492188
365.600006,-186.0,58.666668,40.492188
366.399994,-187.066666,59.333336,40.496094
370.133331,-187.066666,53.733334,40.5
365.733337,-188.933334,58.133335,40.503906
369.733307,-194.799988,56.666664,40.507812
368.800018,-182.266678,58.400002,40.507812
368.0,-183.199997,52.800003,40.511719
368.533325,-196.266663,60.266666,40.515625
367.733337,-182.666656,56.666664,40.515625
366.399994,-185.599991,53.200001,40.519531
366.666687,-186.399994,57.866669,40.523438
372.400024,-191.200012,54.266666,40.523438
370.400024,-183.733337,55.733334,40.527344
368.533325,-194.266663,60.133331,40.527344
369.733307,-194.799988,58.400002,40.535156
368.93335,-192.800003,55.200001,40.535156
368.0,-182.800003,57.600002,40.539062
366.0,-183.199997,58.133335,40.542969
366.799988,-183.866669,55.333332,40.542969
366.533325,-186.399994,55.733334,40.546875
367.333344,-191.866669,55.200001,40.550781
368.533325,-193.333344,58.933334,40.554688
368.666656,-192.666656,58.0,40.558594
368.133301,-192.266678,55.200001,40.558594
370.266693,-183.600006,58.400002,40.5625
367.466675,-184.266663,57.600002,40.566406
370.800018,-195.066666,56.133331,40.566406
366.266663,-182.53334,56.133331,40.570312
365.333313,-187.333344,56.399998,40.574219
371.733337,-189.333328,57.066666,40.574219
372.133331,-187.333344,59.066666,40.574219
370.133331,-186.800003,56.666664,40.578125
369.466675,-194.533325,57.333332,40.582031
372.799988,-196.0,60.133331,40.585938
367.466675,-181.333328,56.533333,40.585938
373.733337,-195.599991,60.533333,40.585938
367.733337,-187.733322,56.666664,40.59375
370.400024,-190.666672,57.600002,40.59375
374.666687,-189.199997,58.533333,40.597656
369.199982,-187.066666,56.799999,40.601562
368.266663,-182.53334,57.066666,40.601562
370.266693,-182.666656,57.600002,40.605469
364.666687,-183.199997,56.0,40.609375
364.666687,-184.533325,56.0,40.609375
371.733337,-188.266663,58.800003,40.613281
373.066681,-188.0,58.533333,40.617188
365.333313,-191.466675,57.333332,40.617188
371.600006,-194.533325,60.933334,40.621094
372.666656,-196.133331,60.266666,40.625
370.800018,-196.266663,56.133331,40.625
367.06665,-183.866669,56.799999,40.628906
369.733307,-194.400009,56.266666,40.628906
364.0,-185.333328,55.866665,40.632812
374.266663,-190.0,58.800003,40.636719
368.93335,-187.733322,55.866665,40.636719
368.93335,-186.666656,58.666668,40.640625
365.600006,-181.866669,56.666664,40.640625
370.800018,-184.0,59.066666,40.644531
368.266663,-183.066681,54.666668,40.648438
364.133331,-182.399994,55.333332,40.648438
368.666656,-187.866669,59.200001,40.652344
375.466644,-188.533325,60.933334,40.65625
369.866669,-182.933334,54.133335,40.65625
366.533325,-184.0,56.933331,40.660156
363.733337,-182.53334,55.599998,40.660156
366.399994,-186.800003,60.133331,40.664062
370.533325,-186.933319,56.533333,40.667969
362.93335,-184.0,53.333336,40.667969
367.200012,-187.199997,58.26667,40.671875
374.266663,-187.46666,61.199997,40.675781
365.066681,-191.466675,54.400002,40.675781
368.399994,-197.46666,61.199997,40.675781
371.199982,-184.0,61.599998,40.679688
367.466675,-182.266678,52.800003,40.683594
362.400024,-182.399994,55.733334,40.6875
374.133331,-192.800003,57.600002,40.6875
367.200012,-185.466675,55.866665,40.691406
373.866638,-192.666656,58.666668,40.695312
365.200012,-183.46666,57.866669,40.695312
372.666656,-186.0,61.866665,40.695312
366.533325,-184.0,52.266663,40.699219
361.199982,-186.666656,56.666664,40.703125
369.466675,-191.466675,61.866665,40.703125
368.533325,-187.600006,54.133335,40.707031
367.333344,-181.733337,52.266663,40.707031
365.600006,-185.200012,59.599998,40.710938
372.533325,-183.600006,61.599998,40.710938
366.799988,-181.600006,52.666668,40.714844
367.733337,-188.133331,53.733334,40.71875
369.466675,-190.93335,63.066669,40.71875
367.333344,-188.666672,50.799999,40.722656
372.666656,-191.866669,64.133331,40.722656
375.733337,-193.333344,59.466667,40.726562
367.733337,-193.333344,50.799999,40.726562
365.733337,-196.266663,59.733334,40.730469
375.333313,-197.199997,62.266663,40.730469
375.600006,-195.866669,64.933334,40.734375
374.666687,-192.53334,53.333336,40.738281
365.200012,-191.466675,55.733334,40.738281
373.600006,-191.733337,63.866669,40.742188
374.399994,-195.200012,62.399998,40.742188
370.93335,-192.53334,51.333332,40.746094
364.133331,-196.266663,58.133335,40.75
373.466675,-181.066666,53.333336,40.75
372.266663,-183.866669,56.133331,40.753906
361.733337,-182.266678,49.866669,40.753906
364.799988,-186.0,62.933334,40.757812
371.733337,-185.066666,57.866669,40.757812
374.133331,-194.799988,62.0,40.761719
368.666656,-189.06665,50.799999,40.761719
360.533325,-192.800003,60.0,40.765625
372.0,-194.133331,63.866669,40.769531
373.066681,-197.46666,65.866669,40.773438
376.666687,-193.333344,55.466667,40.773438
361.733337,-185.066666,62.133331,40.777344
372.133331,-185.200012,59.066666,40.777344
375.066681,-186.399994,53.066669,40.78125
365.733337,-192.800003,64.133331,40.78125
372.799988,-189.06665,57.066666,40.785156
365.066681,-189.333328,50.0,40.789062
360.533325,-181.333328,54.133335,40.789062
370.0,-186.0,65.066666,40.792969
372.133331,-182.0,54.133335,40.792969
361.333344,-181.733337,50.400002,40.796875
365.333313,-188.133331,50.666664,40.800781
375.866669,-188.666672,64.400002,40.800781
362.266663,-190.666672,51.599998,40.804688
374.266663,-184.533325,60.933334,40.804688
371.600006,-184.266663,63.066669,40.808594
365.600006,-192.133331,52.399998,40.8125
370.93335,-184.266663,58.400002,40.8125
364.399994,-193.066681,57.600002,40.8125
362.400024,-186.399994,51.866665,40.816406
371.600006,-187.333344,65.599998,40.820312
374.399994,-184.133331,54.533333,40.824219
364.266663,-179.733337,49.866669,40.824219
364.933319,-193.46666,58.800003,40.824219
372.133331,-184.0,53.200001,40.828125
367.866669,-194.799988,64.133331,40.828125
370.266693,-184.133331,50.666664,40.832031
367.200012,-181.466675,49.733334,40.835938
365.200012,-187.199997,61.333332,40.835938
373.066681,-191.733337,52.0,40.839844
362.799988,-194.266663,57.333332,40.84375
367.733337,-191.733337,53.866669,40.84375
370.533325,-183.733337,57.199997,40.84375
365.200012,-194.933334,60.666664,40.847656
374.799988,-194.400009,65.199997,40.847656
374.0,-190.133347,66.400002,40.851562
376.133362,-184.799988,52.666668,40.855469
366.666687,-192.266678,67.066666,40.855469
374.0,-193.199997,59.200001,40.855469
375.733337,-195.599991,64.666664,40.859375
360.800018,-181.466675,53.333336,40.863281
377.06665,-193.733337,58.666668,40.863281
361.199982,-184.133331,58.800003,40.867188
370.533325,-192.399994,67.733337,40.867188
365.466644,-185.866669,49.599998,40.871094
375.333313,-190.666672,64.933334,40.871094
373.866638,-186.933319,50.799999,40.875
367.866669,-192.133331,50.400002,40.875
366.799988,-198.0,63.866669,40.875
374.266663,-196.399994,60.799999,40.878906
370.0,-192.133331,50.266666,40.878906
360.666656,-184.666672,53.066669,40.882812
367.466675,-189.466675,64.933334,40.886719
372.400024,-188.799988,54.400002,40.886719
364.399994,-188.799988,51.199997,40.886719
368.93335,-190.400009,52.0,40.890625
372.666656,-183.866669,62.666668,40.890625
370.0,-179.866653,52.133331,40.894531
369.466675,-197.46666,65.73333,40.898438
370.133331,-187.199997,63.866669,40.898438
369.866669,-185.333328,51.066666,40.898438
370.666656,-190.0,66.533333,40.902344
368.266663,-188.133331,50.666664,40.90625
361.466675,-180.800003,54.0,40.90625
367.200012,-184.400009,64.800003,40.90625
371.199982,-181.200012,55.333332,40.910156
364.133331,-181.733337,49.733334,40.914062
366.533325,-185.599991,49.733334,40.914062
363.066681,-192.800003,60.400002,40.917969
370.666656,-190.533325,61.73333,40.921875
368.0,-186.800003,49.333336,40.917969
364.133331,-181.733337,53.200001,40.921875
367.599976,-186.266663,64.26667,40.925781
372.133331,-182.266678,54.0,40.925781
365.066681,-180.266663,50.266666,40.929688
366.0,-184.533325,49.333336,40.933594
362.93335,-189.333328,61.866665,40.9375
374.666687,-188.933334,52.933334,40.9375
365.333313,-189.199997,56.133331,40.941406
364.399994,-181.466675,53.066669,40.9375
367.466675,-185.599991,65.333336,40.941406
370.266693,-192.266678,53.466667,40.945312
368.800018,-183.600006,62.266663,40.945312
366.0,-190.0,65.199997,40.949219
370.266693,-188.533325,56.666664,40.949219
366.399994,-189.466675,62.399998,40.953125
375.466644,-187.733322,62.266663,40.953125
370.400024,-183.733337,65.199997,40.957031
364.133331,-193.199997,53.333336,40.960938
370.93335,-182.0,60.533333,40.964844
368.93335,-179.199997,47.466663,40.964844
369.199982,-185.333328,52.266663,40.96875
360.93335,-187.199997,57.333332,40.972656
369.866669,-188.133331,63.333336,40.972656
369.199982,-186.399994,52.0,40.976562
366.933319,-180.533325,50.533333,40.976562
364.133331,-183.866669,64.0,40.980469
371.199982,-182.266678,60.533333,40.980469
364.666687,-194.933334,58.0,40.984375
365.600006,-191.466675,55.066666,40.984375
370.666656,-191.600006,66.400002,40.984375
375.066681,-187.46666,57.199997,40.988281
368.266663,-184.533325,52.133331,40.992188
367.466675,-179.333328,50.266666,40.992188
371.466675,-196.133331,65.199997,40.996094
373.600006,-192.800003,53.600002,40.996094
366.133362,-193.199997,56.0,40.996094
364.799988,-188.133331,64.0,41.0
372.266663,-188.533325,62.933334,41.003906
367.333344,-189.199997,50.266666,41.003906
363.333313,-190.666672,61.73333,41.003906
364.133331,-194.0,59.466667,41.007812
371.466675,-180.93335,55.066666,41.011719
366.399994,-196.53334,64.533333,41.011719
373.333313,-194.933334,60.266666,41.011719
374.266663,-193.733337,63.200001,41.015625
366.266663,-188.399994,54.533333,41.019531
367.599976,-191.600006,66.133331,41.019531
371.733337,-189.733337,57.733337,41.023438
369.466675,-179.333328,51.466667,41.023438
362.533325,-182.133331,57.733337,41.027344
374.266663,-193.46666,56.133331,41.023438
362.400024,-183.733337,62.0,41.027344
371.733337,-191.466675,65.199997,41.03125
363.333313,-187.199997,51.73333,41.03125
373.333313,-190.93335,60.799999,41.03125
362.666656,-187.199997,56.0,41.035156
366.533325,-184.400009,63.600002,41.035156
371.466675,-182.399994,60.799999,41.039062
368.800018,-179.866653,50.266666,41.039062
371.466675,-195.866669,65.333336,41.039062
370.0,-187.46666,59.866669,41.042969
365.333313,-185.200012,51.066666,41.042969
361.733337,-187.866669,61.199997,41.046875
370.533325,-186.666656,61.73333,41.042969
370.800018,-192.133331,64.400002,41.046875
369.733307,-190.266663,52.666668,41.050781
364.533356,-192.666656,58.26667,41.054688
372.799988,-181.866669,56.666664,41.054688
369.199982,-182.800003,58.26667,41.054688
366.133362,-182.266678,52.133331,41.058594
363.333313,-188.666672,60.666664,41.058594
369.06665,-186.133331,59.599998,41.0625
372.266663,-186.133331,52.666668,41.0625
365.866669,-185.333328,53.200001,41.066406
371.06665,-191.866669,59.599998,41.066406
368.533325,-192.399994,53.066669,41.066406
363.466675,-182.266678,55.733334,41.070312
374.533356,-192.133331,59.333336,41.070312
369.199982,-190.666672,52.133331,41.074219
367.06665,-191.066666,62.266663,41.074219
368.133301,-194.266663,65.333336,41.074219
367.466675,-179.866653,49.866669,41.074219
371.199982,-196.266663,65.199997,41.078125
364.666687,-182.0,53.866669,41.082031
364.933319,-185.200012,52.933334,41.082031
370.666656,-189.199997,61.466667,41.085938
363.333313,-190.266663,55.333332,41.085938
372.266663,-183.46666,60.266666,41.085938
367.866669,-183.199997,61.73333,41.089844
366.666687,-181.866669,52.933334,41.089844
364.399994,-183.46666,55.066666,41.089844
365.600006,-185.866669,63.066669,41.09375
371.866699,-183.199997,59.733334,41.09375
367.200012,-195.200012,57.199997,41.097656
371.866699,-195.866669,64.400002,41.097656
373.733337,-192.133331,57.866669,41.097656
368.93335,-190.400009,53.466667,41.101562
367.200012,-185.200012,63.200001,41.101562
368.666656,-193.066681,54.533333,41.105469
367.866669,-184.666672,60.133331,41.105469
365.733337,-184.533325,62.266663,41.105469
367.06665,-184.133331,54.933334,41.109375
370.0,-191.733337,62.666668,41.109375
371.733337,-187.733322,54.266666,41.109375
367.599976,-180.533325,53.733334,41.113281
366.266663,-183.46666,61.333332,41.117188
367.866669,-182.399994,60.266666,41.113281
368.800018,-195.466675,59.866669,41.117188
367.06665,-190.0,63.333336,41.117188
369.599976,-192.666656,58.666668,41.121094
370.133331,-192.933334,53.600002,41.121094
367.733337,-184.799988,62.0,41.125
365.866669,-183.066681,61.73333,41.125
367.333344,-183.46666,56.533333,41.128906
364.133331,-184.666672,54.266666,41.125
364.933319,-188.133331,59.466667,41.128906
368.800018,-192.666656,61.866665,41.128906
370.133331,-183.066681,51.866665,41.132812
368.133301,-183.199997,58.0,41.128906
367.333344,-181.466675,61.333332,41.132812
365.066681,-186.399994,59.866669,41.132812
366.399994,-186.933319,58.400002,41.136719
367.599976,-187.733322,54.0,41.136719
366.933319,-191.333328,60.400002,41.136719
369.466675,-194.933334,60.533333,41.140625
369.199982,-195.200012,62.133331,41.140625
366.399994,-181.600006,55.466667,41.140625
364.666687,-183.199997,60.400002,41.144531
370.0,-186.800003,60.0,41.144531
367.733337,-190.266663,57.866669,41.148438
368.0,-196.0,59.599998,41.148438
369.733307,-193.866669,58.666668,41.148438
366.266663,-181.866669,54.533333,41.148438
370.266693,-194.266663,60.266666,41.152344
366.933319,-182.133331,54.133335,41.152344
365.733337,-184.0,58.533333,41.152344
369.599976,-187.600006,60.0,41.152344
370.0,-183.600006,55.333332,41.15625
370.400024,-194.0,60.400002,41.160156
366.533325,-193.333344,58.533333,41.15625
370.800018,-192.666656,59.333336,41.160156
365.333313,-184.266663,57.866669,41.160156
364.799988,-181.866669,56.933331,41.160156
366.0,-181.733337,56.666664,41.164062
368.666656,-189.06665,60.133331,41.164062
367.200012,-193.333344,57.466663,41.164062
371.866699,-195.733337,59.599998,41.164062
368.533325,-194.266663,58.133335,41.167969
364.799988,-183.600006,56.799999,41.167969
367.200012,-187.066666,58.400002,41.167969
367.333344,-186.800003,57.866669,41.167969
366.533325,-186.53334,58.26667,41.171875
368.266663,-192.933334,60.533333,41.171875
370.533325,-182.53334,59.466667,41.171875
365.466644,-181.066666,57.600002,41.175781
370.133331,-194.933334,57.866669,41.171875
368.533325,-187.46666,59.733334,41.175781
367.866669,-188.533325,57.733337,41.175781
372.133331,-189.06665,58.933334,41.175781
370.266693,-188.0,58.400002,41.175781
369.733307,-182.133331,56.933331,41.179688
365.733337,-182.266678,54.666668,41.179688
371.600006,-194.666672,67.866669,41.179688
363.200012,-182.399994,56.799999,41.183594
368.800018,-184.533325,57.466663,41.183594
372.0,-186.53334,60.266666,41.183594
368.0,-193.733337,57.333332,41.1875
370.266693,-183.199997,59.333336,41.183594
371.866699,-189.733337,58.26667,41.1875
366.266663,-185.733337,58.400002,41.1875
373.466675,-189.199997,60.799999,41.1875
366.266663,-189.599991,56.933331,41.1875
366.933319,-181.066666,57.066666,41.191406
372.400024,-190.666672,59.733334,41.191406
364.399994,-181.466675,56.933331,41.191406
369.199982,-183.733337,60.666664,41.191406
373.600006,-189.599991,59.200001,41.191406
369.199982,-186.0,56.399998,41.195312
368.266663,-187.866669,56.799999,41.195312
368.133301,-189.866653,58.133335,41.195312
371.06665,-193.600006,57.733337,41.195312
368.800018,-192.666656,57.199997,41.199219
369.333344,-195.200012,60.666664,41.199219
365.200012,-185.733337,55.466667,41.199219
367.333344,-182.133331,57.066666,41.199219
368.399994,-184.933334,59.200001,41.199219
369.199982,-183.066681,59.200001,41.199219
365.066681,-180.93335,54.933334,41.203125
368.133301,-191.466675,58.26667,41.203125
367.866669,-185.599991,57.333332,41.203125
364.133331,-185.066666,56.399998,41.203125
367.733337,-188.533325,59.866669,41.203125
369.866669,-192.800003,56.533333,41.203125
366.533325,-195.200012,56.0,41.207031
369.733307,-196.666656,60.266666,41.207031
372.133331,-194.0,59.866669,41.207031
364.266663,-180.93335,54.666668,41.207031
372.666656,-196.0,63.600002,41.207031
370.400024,-190.666672,57.066666,41.207031
367.06665,-187.46666,57.600002,41.207031
365.600006,-181.333328,55.733334,41.207031
371.733337,-195.466675,61.599998,41.210938
364.133331,-180.533325,56.133331,41.210938
374.533356,-194.533325,61.73333,41.210938
373.466675,-190.666672,61.73333,41.210938
364.133331,-186.666656,57.466663,41.210938
368.266663,-191.600006,64.133331,41.210938
365.866669,-180.93335,54.0,41.210938
366.933319,-190.666672,56.933331,41.214844
371.199982,-189.466675,62.266663,41.214844
375.733337,-185.733337,58.400002,41.214844
365.333313,-193.066681,56.933331,41.214844
376.266663,-193.066681,62.399998,41.214844
371.199982,-190.533325,55.066666,41.214844
368.800018,-187.866669,62.666668,41.214844
372.666656,-186.800003,58.400002,41.21875
364.533356,-193.600006,56.933331,41.21875
373.200012,-195.200012,64.0,41.21875
365.466644,-182.666656,52.800003,41.21875
372.533325,-191.733337,63.733334,41.21875
368.666656,-183.733337,62.133331,41.21875
368.266663,-192.53334,54.266666,41.21875
366.933319,-193.866669,60.799999,41.222656
374.799988,-195.333328,64.933334,41.222656
370.666656,-185.599991,63.066669,41.222656
374.133331,-181.066666,57.600002,41.222656
364.266663,-181.066666,53.466667,41.222656
375.333313,-194.133331,64.133331,41.222656
373.466675,-190.93335,59.866669,41.226562
368.399994,-191.600006,54.0,41.226562
368.666656,-183.333344,63.600002,41.222656
370.133331,-180.666672,54.799999,41.226562
368.800018,-184.133331,51.599998,41.226562
364.399994,-183.199997,58.933334,41.226562
370.93335,-183.333344,63.333336,41.226562
368.0,-191.466675,54.133335,41.226562
361.333344,-189.333328,57.466663,41.226562
374.933319,-182.933334,58.666668,41.226562
366.933319,-180.533325,52.399998,41.230469
362.400024,-182.53334,58.933334,41.226562
368.800018,-189.733337,63.866669,41.230469
373.733337,-184.666672,58.0,41.230469
366.133362,-179.333328,52.666668,41.230469
362.93335,-183.600006,59.866669,41.226562
372.666656,-189.733337,60.533333,41.230469
366.266663,-189.866653,52.533337,41.230469
362.93335,-194.533325,60.400002,41.230469
373.733337,-195.599991,63.466667,41.230469
372.666656,-183.066681,58.666668,41.234375
364.266663,-190.133347,58.533333,41.234375
374.0,-188.666672,58.0,41.234375
363.466675,-191.333328,52.933334,41.234375
360.0,-182.800003,57.733337,41.230469
368.533325,-187.733322,65.466667,41.230469
367.733337,-184.400009,52.666668,41.234375
372.533325,-193.333344,64.666664,41.234375
372.400024,-181.333328,58.0,41.234375
363.333313,-179.466675,50.266666,41.234375
361.733337,-185.066666,60.799999,41.234375
374.133331,-190.400009,64.533333,41.234375
369.866669,-191.600006,52.266663,41.234375
364.533356,-191.600006,59.866669,41.234375
374.399994,-191.600006,66.533333,41.234375
374.799988,-183.866669,54.799999,41.234375
358.666656,-181.200012,55.599998,41.234375
368.800018,-186.0,65.466667,41.234375
367.733337,-190.0,52.666668,41.234375
366.266663,-192.0,61.199997,41.234375
360.800018,-181.866669,59.066666,41.234375
371.733337,-185.066666,65.466667,41.234375
370.533325,-183.066681,53.733334,41.238281
364.933319,-189.599991,64.26667,41.234375
371.333344,-196.399994,66.666664,41.234375
363.333313,-178.533325,49.599998,41.234375
375.333313,-195.466675,66.266663,41.234375
374.799988,-190.533325,55.466667,41.238281
367.866669,-188.933334,53.733334,41.238281
365.333313,-195.333328,62.933334,41.238281
372.133331,-179.733337,53.333336,41.238281
367.599976,-194.933334,64.26667,41.238281
364.0,-187.066666,60.266666,41.238281
374.0,-185.466675,65.466667,41.238281
372.400024,-181.066666,52.933334,41.238281
367.333344,-195.866669,65.466667,41.238281
364.266663,-191.733337,62.266663,41.238281
372.666656,-186.399994,55.200001,41.238281
360.93335,-190.0,53.200001,41.238281
374.933319,-183.733337,60.266666,41.238281
371.199982,-184.0,64.133331,41.238281
364.933319,-190.400009,53.600002,41.238281
