mx,my,mz,temp
214.799988,438.800018,116.133339,33.074219
213.866669,439.199982,116.133339,33.070312
226.933319,437.333344,116.53334,33.070312
239.466675,429.733307,117.733337,33.070312
231.733337,418.266663,117.600006,33.070312
232.0,411.333344,118.133331,33.074219
228.933334,440.93335,116.400002,33.070312
239.333328,451.600006,118.533333,33.066406
238.0,444.533356,119.199997,33.066406
226.53334,441.733337,134.533325,33.070312
228.266663,438.0,116.400002,33.074219
237.199997,437.200012,119.733337,33.070312
226.266663,439.599976,124.799995,33.070312
215.066666,440.800018,118.133331,33.074219
241.866669,432.133331,118.26667,33.074219
237.46666,428.0,118.26667,33.074219
229.333328,423.200012,118.133331,33.074219
240.133347,425.733337,118.933334,33.070312
234.533325,442.93335,143.46666,33.074219
231.066666,440.0,110.0,33.074219
229.866653,438.800018,112.133331,33.070312
239.866653,441.866699,115.733337,33.070312
234.400009,440.533325,110.533333,33.070312
207.733322,439.06665,116.933334,33.074219
229.733337,414.533356,117.600006,33.074219
238.0,413.066681,118.133331,33.074219
236.266663,453.200012,117.466667,33.074219
233.46666,444.799988,128.133331,33.074219
226.399994,442.0,132.399994,33.074219
238.0,443.066681,137.866669,33.074219
234.133331,442.799988,115.333336,33.070312
236.133331,442.266663,111.333328,33.074219
224.933334,439.599976,107.466667,33.074219
239.333328,441.866699,115.600006,33.070312
234.799988,423.333313,118.0,33.074219
230.266663,440.133331,111.199997,33.074219
229.333328,439.599976,112.399994,33.074219
238.399994,440.800018,116.53334,33.078125
209.733337,441.733337,116.666672,33.074219
210.266663,440.266693,117.733337,33.074219
199.866653,439.333344,114.533325,33.074219
210.533325,442.0,118.666672,33.070312
236.666656,451.600006,117.600006,33.078125
234.133331,454.0,116.133339,33.074219
227.866669,451.333344,116.666672,33.074219
238.399994,444.0,130.666672,33.074219
235.200012,439.866669,113.866661,33.074219
233.600006,440.0,116.800003,33.078125
237.600006,438.666656,118.0,33.074219
243.866669,434.666687,120.800003,33.074219
234.133331,414.666687,117.333336,33.074219
237.066666,426.533325,118.400002,33.078125
226.933319,440.400024,122.666664,33.074219
240.93335,444.666687,116.666672,33.074219
234.266663,440.533325,116.666672,33.074219
233.866669,439.333344,116.933334,33.074219
223.733337,438.133301,116.933334,33.078125
221.733337,441.466675,118.26667,33.078125
225.066666,438.666656,116.53334,33.070312
241.066666,430.533325,119.466667,33.074219
224.799988,452.266663,116.666672,33.078125
239.733337,442.666656,107.866669,33.074219
229.06665,442.133331,108.400002,33.074219
237.600006,441.06665,109.733337,33.070312
227.733322,438.133301,112.533333,33.074219
210.533325,441.866699,116.666672,33.074219
235.066666,451.06665,117.200005,33.074219
236.933319,453.466675,115.866669,33.074219
227.600006,446.799988,121.599998,33.074219
240.0,446.133362,129.600006,33.078125
228.0,444.666687,128.399994,33.078125
238.799988,442.93335,137.600006,33.078125
227.333344,439.466675,140.800003,33.078125
215.466675,440.800018,117.333336,33.078125
220.400009,439.333344,115.866669,33.074219
245.066666,437.733337,119.333336,33.078125
231.733337,427.866669,115.600006,33.074219
237.066666,444.133331,133.066666,33.074219
226.933319,441.333344,121.066666,33.078125
238.0,440.266693,115.600006,33.074219
227.066666,437.733337,116.53334,33.078125
220.0,440.93335,115.600006,33.074219
225.733337,439.333344,116.53334,33.074219
251.200012,441.333344,119.333336,33.078125
225.333328,442.266663,116.933334,33.074219
234.799988,438.93335,117.333336,33.078125
238.933334,420.800018,118.533333,33.074219
226.800003,411.199982,117.866669,33.074219
238.799988,439.733307,117.600006,33.078125
233.600006,452.0,118.133331,33.074219
240.800003,441.866699,108.666672,33.078125
228.799988,438.133301,116.400002,33.074219
246.800003,440.533325,118.800003,33.074219
226.266663,442.799988,126.0,33.078125
233.066681,442.0,118.533333,33.078125
227.199997,439.333344,105.466675,33.078125
238.266663,441.199982,117.733337,33.078125
228.266663,438.0,116.53334,33.078125
235.866669,430.133331,117.466667,33.078125
227.866669,441.733337,117.466667,33.078125
241.066666,453.200012,118.933334,33.074219
225.733337,439.866669,136.266663,33.078125
235.066666,438.93335,117.466667,33.078125
229.733337,421.333344,118.800003,33.078125
237.733322,432.266663,119.066666,33.078125
227.733322,451.600006,116.800003,33.074219
233.866669,442.0,122.0,33.078125
234.533325,440.666656,108.933334,33.078125
227.066666,439.06665,112.0,33.074219
238.933334,441.06665,117.066666,33.082031
228.133331,439.466675,115.466675,33.078125
236.800003,439.199982,118.26667,33.078125
215.733337,437.866669,115.733337,33.078125
243.46666,441.733337,118.400002,33.078125
232.133331,442.666656,131.866669,33.078125
236.933319,441.333344,138.800003,33.078125
226.800003,439.599976,140.666672,33.078125
213.333344,440.800018,117.066666,33.078125
234.666672,417.599976,117.866669,33.078125
233.600006,412.666656,117.733337,33.074219
227.733322,442.93335,116.933334,33.078125
239.466675,453.733337,118.533333,33.078125
234.933334,441.06665,116.933334,33.074219
223.733337,438.800018,116.933334,33.078125
210.800003,438.93335,117.333336,33.078125
215.466675,441.733337,117.333336,33.078125
222.800003,440.0,116.53334,33.078125
245.466675,440.93335,118.133331,33.074219
240.133347,438.666656,115.600006,33.078125
239.599991,441.199982,119.333336,33.078125
229.199997,444.799988,125.200005,33.078125
238.933334,442.400024,141.46666,33.078125
212.133331,437.200012,117.466667,33.078125
211.066666,441.733337,118.26667,33.078125
232.0,421.333344,117.733337,33.078125
238.266663,449.199982,117.866669,33.078125
226.133331,439.333344,136.800003,33.078125
239.199997,442.799988,145.200012,33.078125
230.266663,440.400024,105.866669,33.078125
239.466675,440.666656,118.666672,33.078125
217.866669,438.133301,117.066666,33.078125
237.866669,435.066681,119.733337,33.078125
227.866669,451.866699,117.066666,33.078125
232.800003,439.866669,106.666672,33.078125
227.866669,438.533325,115.600006,33.078125
224.0,441.06665,118.0,33.078125
234.666672,440.133331,117.466667,33.078125
236.53334,415.733337,118.0,33.078125
226.0,431.333344,116.400002,33.078125
239.466675,448.93335,119.199997,33.074219
229.199997,441.866699,113.73333,33.078125
238.933334,441.866699,106.800003,33.078125
226.800003,438.399994,114.666664,33.078125
240.133347,423.066681,119.199997,33.078125
230.93335,443.466675,130.133331,33.078125
235.066666,441.600006,141.066666,33.078125
224.933334,439.599976,140.533325,33.078125
238.399994,443.200012,128.666672,33.078125
226.53334,440.93335,114.266663,33.078125
238.666672,443.200012,110.666664,33.078125
228.0,439.199982,112.399994,33.078125
233.333344,440.533325,116.800003,33.078125
234.933334,438.800018,117.066666,33.082031
249.06665,441.600006,119.599998,33.078125
230.133347,418.0,117.200005,33.078125
232.800003,413.733337,117.333336,33.078125
225.200012,449.733307,117.733337,33.082031
236.399994,443.333313,135.200012,33.078125
232.933334,440.93335,126.26667,33.078125
208.133331,439.599976,117.200005,33.078125
229.599991,424.266663,118.133331,33.078125
239.06665,454.799988,118.133331,33.074219
228.266663,441.199982,133.066666,33.078125
229.199997,440.800018,138.133331,33.078125
228.399994,440.400024,109.199997,33.078125
222.133331,441.199982,118.26667,33.082031
211.733337,439.06665,116.400002,33.078125
202.800003,439.866669,116.666672,33.078125
226.933319,443.466675,116.666672,33.078125
238.399994,454.666687,118.800003,33.074219
230.266663,440.800018,128.800003,33.078125
234.133331,440.533325,116.400002,33.074219
235.866669,438.800018,116.666672,33.078125
240.400009,429.333344,118.400002,33.082031
224.133331,439.733307,111.333328,33.078125
237.733322,442.666656,108.133331,33.078125
210.400009,438.666656,116.0,33.078125
221.333328,440.533325,117.066666,33.078125
225.866669,414.133331,117.333336,33.078125
238.799988,445.333313,118.533333,33.082031
228.933334,441.600006,120.533333,33.082031
236.399994,443.066681,110.0,33.078125
210.666672,438.0,115.066673,33.078125
238.799988,422.799988,118.800003,33.082031
228.933334,416.399994,117.333336,33.078125
239.733337,413.866638,118.533333,33.082031
224.0,439.466675,113.73333,33.078125
246.933319,436.133362,120.400002,33.078125
237.733322,442.799988,117.466667,33.082031
236.53334,452.400024,118.533333,33.078125
228.399994,452.666656,115.333336,33.078125
218.666672,440.400024,117.200005,33.078125
240.133347,454.933319,118.26667,33.078125
226.666656,440.400024,124.666664,33.078125
233.866669,442.799988,114.533325,33.078125
235.733337,440.400024,113.599998,33.078125
252.800003,440.266693,119.199997,33.078125
229.599991,421.866699,117.733337,33.078125
234.533325,422.666656,117.733337,33.078125
235.599991,452.133331,117.200005,33.074219
236.666656,450.400024,121.73333,33.078125
230.133347,440.93335,129.866669,33.078125
232.0,441.06665,139.199997,33.078125
219.599991,440.666656,116.933334,33.078125
248.266663,441.199982,118.933334,33.078125
233.600006,428.266663,117.866669,33.078125
231.600006,417.333344,116.800003,33.078125
238.533325,414.266663,117.600006,33.078125
235.866669,443.866638,132.933334,33.082031
232.800003,440.666656,137.333344,33.078125
228.0,438.93335,141.199997,33.078125
238.933334,441.866699,142.800003,33.078125
235.466675,441.866699,107.333336,33.082031
236.800003,441.466675,104.399994,33.078125
227.333344,438.266663,115.866669,33.078125
238.933334,440.93335,118.26667,33.082031
201.866669,440.0,115.866669,33.078125
232.53334,441.06665,116.53334,33.082031
234.0,437.599976,116.933334,33.078125
239.733337,431.866699,118.800003,33.078125
227.600006,438.0,139.866669,33.078125
236.53334,442.266663,107.866669,33.078125
226.800003,438.533325,108.933334,33.074219
241.466675,432.93335,117.733337,33.082031
235.466675,442.533325,142.0,33.078125
233.733337,441.199982,142.666656,33.078125
227.600006,439.733307,115.200005,33.078125
238.933334,441.06665,117.600006,33.082031
210.800003,440.800018,116.26667,33.078125
208.666672,440.533325,116.53334,33.078125
200.533325,438.133301,115.066673,33.078125
209.466675,441.866699,118.533333,33.078125
235.466675,446.266663,125.600006,33.078125
233.866669,443.466675,129.866669,33.078125
227.46666,441.199982,131.46666,33.078125
238.533325,443.733337,133.066666,33.078125
228.133331,442.400024,131.066666,33.078125
238.133331,442.400024,135.066666,33.078125
225.866669,438.800018,138.0,33.082031
224.666672,442.133331,118.26667,33.078125
219.06665,438.666656,117.200005,33.078125
240.266663,428.93335,120.533333,33.078125
227.199997,436.666687,116.800003,33.078125
237.600006,443.066681,123.866661,33.082031
232.266678,440.800018,115.733337,33.078125
234.533325,439.733307,117.333336,33.082031
227.333344,438.399994,116.133339,33.082031
231.733337,440.93335,118.533333,33.082031
235.599991,416.0,117.866669,33.078125
235.733337,413.466675,117.866669,33.082031
226.53334,436.799988,117.333336,33.078125
241.200012,445.600006,119.866669,33.082031
229.333328,442.0,133.866669,33.082031
237.600006,442.0,141.066666,33.078125
224.933334,439.06665,129.866669,33.078125
216.399994,440.93335,117.866669,33.082031
232.399994,440.266693,117.600006,33.078125
242.266678,441.199982,118.933334,33.078125
235.733337,438.666656,118.666672,33.078125
239.599991,428.399994,119.199997,33.078125
232.0,440.133331,118.0,33.078125
238.533325,450.266693,120.400002,33.078125
227.333344,452.799988,116.0,33.078125
234.666672,443.200012,132.666656,33.078125
226.933319,440.533325,112.933334,33.078125
237.066666,442.266663,107.466667,33.078125
229.466675,438.93335,111.599998,33.078125
206.53334,441.199982,116.133339,33.078125
215.866669,438.93335,115.600006,33.078125
237.866669,422.266663,117.733337,33.082031
228.533325,413.200012,117.600006,33.078125
230.800003,444.533356,127.466667,33.078125
225.466675,441.466675,129.466675,33.078125
235.066666,442.93335,133.866669,33.082031
229.733337,439.06665,117.466667,33.078125
241.066666,439.733307,117.733337,33.082031
225.466675,413.466675,116.400002,33.078125
237.46666,446.799988,118.26667,33.082031
234.666672,447.06665,117.866669,33.078125
228.399994,453.333313,116.666672,33.078125
222.800003,440.133331,103.066666,33.078125
234.0,433.600006,116.933334,33.082031
222.53334,431.06665,112.666664,33.082031
206.800003,433.200012,105.733337,33.078125
223.46666,437.200012,120.400002,33.078125
234.266663,427.06665,105.066673,33.078125
236.53334,420.93335,122.133331,33.082031
222.399994,417.866669,106.0,33.078125
231.866669,436.799988,119.066666,33.078125
227.733322,451.199982,107.466667,33.078125
236.133331,440.666656,126.133339,33.078125
221.600006,442.0,119.866669,33.078125
232.0,436.399994,120.533333,33.078125
223.600006,442.133331,138.133331,33.078125
235.599991,434.0,130.533325,33.078125
227.333344,443.066681,117.066666,33.078125
230.400009,442.0,108.0,33.078125
202.399994,437.599976,119.466667,33.078125
206.933319,438.666656,105.333336,33.082031
203.199997,438.266663,118.666672,33.082031
239.599991,430.533325,109.866669,33.078125
228.133331,439.599976,117.200005,33.078125
232.666656,456.399994,106.0,33.078125
227.733322,432.266663,113.199997,33.078125
245.200012,442.799988,112.0,33.078125
224.533325,410.93335,114.266663,33.082031
236.133331,424.266663,112.799995,33.078125
228.133331,402.533325,112.666664,33.078125
234.799988,443.066681,108.400002,33.078125
200.93335,431.333344,105.066673,33.078125
208.0,442.799988,117.466667,33.078125
223.733337,432.133331,107.066666,33.078125
236.0,445.600006,122.399994,33.078125
222.0,443.333313,110.800003,33.078125
239.466675,440.266693,137.333344,33.078125
221.333328,440.533325,122.266663,33.078125
237.733322,431.733337,116.666672,33.078125
222.266678,440.666656,107.466667,33.082031
215.466675,431.866699,116.666672,33.078125
197.333344,441.466675,107.866669,33.078125
210.666672,434.666687,106.53334,33.078125
198.666672,440.133331,115.200005,33.078125
236.666656,407.06665,109.333336,33.078125
230.0,442.0,117.066666,33.078125
235.066666,441.733337,129.733337,33.078125
201.600006,436.0,118.800003,33.078125
240.266663,429.333344,106.400002,33.078125
227.199997,449.199982,119.866669,33.078125
231.866669,450.0,107.733337,33.078125
225.066666,441.199982,120.666664,33.078125
233.46666,444.933319,127.866669,33.078125
227.733322,432.0,142.266663,33.078125
236.133331,444.666687,141.199997,33.082031
218.799988,431.733337,133.199997,33.082031
233.199997,444.666687,115.866669,33.082031
211.733337,430.800018,110.400002,33.078125
244.799988,432.533325,123.73333,33.078125
222.0,412.0,103.333328,33.078125
237.199997,436.133362,121.599998,33.082031
229.199997,447.200012,105.600006,33.082031
240.666672,433.733337,142.533325,33.078125
196.933319,439.866669,102.799995,33.078125
224.400009,433.600006,120.266663,33.078125
230.666672,442.666656,107.466667,33.082031
237.733322,410.0,112.0,33.078125
225.333328,414.0,115.200005,33.078125
233.733337,431.866699,109.599998,33.082031
231.866669,454.799988,116.400002,33.078125
232.266678,454.533356,104.0,33.078125
227.066666,437.599976,117.600006,33.082031
227.199997,438.0,104.933327,33.078125
241.600006,439.06665,122.666664,33.078125
235.200012,416.133362,108.533333,33.082031
230.800003,431.600006,118.400002,33.082031
228.666672,454.133331,109.066666,33.082031
236.133331,434.399994,115.200005,33.078125
225.066666,442.799988,114.399994,33.082031
229.866653,430.666656,109.733337,33.078125
241.333328,440.0,116.400002,33.082031
234.133331,412.0,108.933334,33.082031
237.866669,441.06665,120.800003,33.078125
221.600006,414.0,105.866669,33.078125
237.733322,423.200012,119.733337,33.082031
228.399994,446.666687,104.399994,33.078125
240.266663,438.0,111.599998,33.082031
221.200012,438.93335,103.199997,33.078125
238.266663,435.866669,122.266663,33.082031
213.46666,440.266693,106.666672,33.082031
233.199997,433.600006,117.066666,33.082031
222.933334,450.0,108.0,33.082031
237.199997,438.800018,123.333328,33.082031
227.333344,439.466675,131.46666,33.082031
233.46666,436.133362,99.733337,33.082031
204.799988,439.866669,116.800003,33.082031
204.266663,434.399994,106.666672,33.082031
231.866669,440.93335,118.666672,33.082031
234.666672,449.199982,106.800003,33.082031
226.933319,438.666656,132.666656,33.082031
229.733337,441.600006,127.200005,33.085938
233.866669,435.600006,132.800003,33.082031
233.866669,442.93335,111.066666,33.085938
208.533325,429.866669,114.799995,33.085938
207.333344,442.266663,110.933334,33.085938
240.266663,431.733337,116.0,33.085938
236.133331,416.933319,120.533333,33.085938
229.466675,438.800018,104.799995,33.085938
228.933334,450.93335,120.133331,33.082031
233.600006,439.199982,118.400002,33.085938
232.399994,435.066681,122.266663,33.085938
231.600006,443.466675,98.533333,33.085938
224.933334,430.266693,120.133331,33.085938
208.133331,443.600006,106.133339,33.085938
228.533325,413.200012,109.733337,33.085938
237.46666,424.266663,118.133331,33.085938
223.866669,443.200012,106.133339,33.085938
233.066681,444.666687,133.199997,33.085938
205.599991,437.466675,102.799995,33.089844
236.133331,436.399994,146.800003,33.085938
224.0,440.266693,100.666664,33.089844
231.733337,433.466675,122.266663,33.089844
228.666672,441.466675,110.800003,33.085938
239.466675,422.133331,114.799995,33.089844
230.666672,421.733337,111.866669,33.089844
226.266663,430.400024,112.0,33.089844
226.800003,450.400024,121.599998,33.089844
225.200012,438.666656,120.266663,33.089844
240.133347,440.266693,147.333344,33.089844
221.866669,438.800018,104.133331,33.089844
233.600006,431.06665,119.066666,33.09375
200.133347,441.333344,107.333336,33.09375
235.466675,432.133331,118.400002,33.09375
229.466675,441.199982,108.800003,33.089844
232.133331,443.333313,108.933334,33.089844
223.733337,441.866699,115.600006,33.089844
234.799988,434.666687,102.133331,33.09375
202.666656,440.400024,113.599998,33.09375
225.599991,441.600006,110.533333,33.09375
231.600006,440.800018,111.333328,33.09375
232.399994,435.866669,103.599998,33.09375
223.600006,436.933319,119.199997,33.097656
225.866669,441.333344,106.53334,33.09375
242.399994,431.866699,120.800003,33.097656
235.333328,420.400024,110.133331,33.09375
227.733322,433.333313,119.466667,33.097656
212.0,441.600006,112.133331,33.097656
199.866653,430.666656,111.466667,33.097656
240.93335,443.200012,113.866661,33.097656
225.200012,415.466644,111.599998,33.097656
235.333328,444.666687,121.599998,33.097656
223.333344,440.133331,113.46666,33.097656
238.533325,440.400024,147.466675,33.097656
221.066666,438.800018,102.399994,33.097656
221.333328,433.066681,119.599998,33.097656
220.266663,415.333313,106.400002,33.097656
240.533325,433.600006,121.866669,33.101562
223.866669,445.600006,117.866669,33.097656
203.866669,431.600006,112.399994,33.101562
229.333328,440.666656,113.866661,33.097656
247.733322,431.733337,114.0,33.097656
240.800003,439.466675,124.533325,33.101562
228.533325,417.200012,107.866669,33.101562
239.06665,444.666687,120.133331,33.101562
222.133331,444.0,109.866669,33.101562
237.46666,445.600006,117.200005,33.101562
222.266678,439.466675,141.066666,33.101562
228.266663,435.066681,107.600006,33.101562
224.0,418.666656,116.133339,33.101562
233.199997,432.266663,108.26667,33.105469
226.266663,435.333313,141.46666,33.105469
234.400009,442.93335,107.866669,33.101562
227.600006,434.799988,115.066673,33.101562
228.133331,439.733307,104.933327,33.105469
227.333344,412.799988,115.866669,33.105469
235.333328,418.533325,111.466667,33.105469
225.733337,435.866669,124.133331,33.105469
228.533325,442.133331,128.399994,33.105469
221.066666,435.866669,111.466667,33.105469
232.933334,441.199982,111.866669,33.105469
229.866653,435.333313,104.799995,33.105469
208.933334,436.799988,122.133331,33.109375
222.266678,416.799988,106.400002,33.109375
234.666672,420.533325,119.733337,33.109375
231.733337,446.799988,108.400002,33.105469
223.333344,444.266663,117.866669,33.109375
228.133331,442.93335,110.266663,33.109375
226.266663,430.400024,107.066666,33.109375
235.733337,441.333344,116.400002,33.113281
207.866669,432.666656,106.666672,33.109375
240.0,435.466644,144.533325,33.113281
223.733337,442.266663,106.400002,33.109375
230.666672,434.399994,122.0,33.113281
236.666656,441.06665,108.400002,33.113281
238.266663,433.200012,139.066666,33.113281
223.46666,442.400024,111.066666,33.113281
233.866669,429.466675,111.199997,33.113281
217.066666,441.333344,112.133331,33.113281
242.266678,437.466675,107.200005,33.113281
238.533325,437.599976,121.599998,33.117188
226.266663,417.466675,105.600006,33.113281
234.666672,414.266663,122.0,33.113281
233.333344,443.600006,101.066666,33.113281
231.866669,433.333313,119.866669,33.113281
213.600006,441.199982,107.600006,33.121094
212.53334,434.666687,120.133331,33.121094
235.466675,416.266663,114.266663,33.117188
227.600006,433.333313,129.333328,33.117188
218.533325,440.666656,110.666664,33.113281
207.46666,432.400024,112.399994,33.121094
235.866669,420.533325,120.400002,33.117188
226.666656,429.866669,107.200005,33.121094
229.866653,450.800018,119.333336,33.117188
230.666672,438.399994,128.666672,33.117188
234.0,435.866669,121.199997,33.121094
229.466675,441.333344,106.53334,33.121094
227.600006,431.733337,118.800003,33.121094
237.066666,428.93335,109.066666,33.125
233.066681,442.799988,111.466667,33.117188
231.733337,441.600006,135.066666,33.121094
224.533325,433.066681,109.333336,33.121094
236.933319,442.93335,106.666672,33.125
232.53334,446.799988,106.800003,33.125
229.333328,440.266693,117.200005,33.125
226.53334,434.133331,99.199997,33.125
235.066666,439.466675,123.599998,33.128906
231.200012,418.0,106.26667,33.128906
232.399994,436.933319,120.933334,33.128906
224.666672,439.733307,94.266663,33.128906
206.133331,436.666687,121.199997,33.128906
235.066666,414.799988,110.666664,33.128906
224.933334,432.799988,138.800003,33.128906
209.599991,440.93335,108.26667,33.128906
227.733322,433.200012,118.800003,33.132812
237.733322,436.533325,116.666672,33.128906
225.200012,441.866699,112.399994,33.128906
228.133331,441.06665,140.266663,33.128906
233.199997,436.533325,101.333328,33.132812
221.333328,435.733337,120.933334,33.136719
229.333328,439.866669,107.200005,33.132812
239.866653,432.799988,120.533333,33.136719
235.866669,427.06665,107.733337,33.132812
226.0,434.533356,127.866669,33.136719
234.533325,442.266663,124.933327,33.136719
224.266663,432.799988,101.866669,33.136719
219.333328,440.133331,113.866661,33.136719
226.399994,439.866669,105.333336,33.136719
237.866669,442.666656,133.066666,33.136719
221.466675,438.800018,107.600006,33.140625
232.666656,438.133301,109.199997,33.140625
208.799988,439.199982,107.600006,33.140625
206.800003,434.533356,115.200005,33.140625
222.266678,450.0,109.199997,33.140625
231.466675,435.600006,129.466675,33.140625
210.266663,438.266663,112.933334,33.144531
206.133331,435.733337,109.199997,33.144531
235.066666,440.0,144.799988,33.144531
222.399994,436.666687,93.066666,33.144531
222.133331,434.266663,118.0,33.144531
226.399994,433.866638,105.866669,33.144531
237.199997,438.0,135.466675,33.144531
198.666672,436.799988,103.866661,33.144531
229.866653,409.06665,113.199997,33.144531
228.0,453.066681,113.199997,33.144531
236.133331,436.399994,121.066666,33.144531
222.666656,439.733307,107.866669,33.148438
223.866669,435.733337,129.466675,33.148438
227.333344,439.199982,133.866669,33.148438
234.666672,440.533325,107.200005,33.148438
223.46666,436.133362,116.800003,33.148438
226.0,447.866669,106.133339,33.152344
228.666672,434.799988,138.133331,33.148438
234.133331,442.799988,111.066666,33.152344
228.533325,433.333313,119.866669,33.152344
223.066681,440.0,131.600006,33.15625
230.93335,435.466644,113.333328,33.15625
231.866669,441.600006,109.733337,33.152344
207.333344,432.133331,113.73333,33.15625
224.666672,440.0,131.199997,33.15625
229.06665,437.599976,108.800003,33.15625
233.46666,439.333344,115.200005,33.152344
195.733337,435.066681,107.066666,33.15625
231.600006,409.199982,118.933334,33.15625
226.53334,450.133331,108.133331,33.152344
237.333344,437.866669,142.800003,33.15625
222.266678,440.0,99.733337,33.15625
228.933334,447.733337,114.666664,33.15625
227.733322,440.93335,137.066666,33.160156
236.800003,436.266663,103.73333,33.160156
212.933334,438.533325,110.0,33.164062
225.866669,437.333344,108.133331,33.164062
229.199997,425.466644,118.133331,33.164062
233.199997,422.400024,109.599998,33.164062
228.533325,440.0,116.400002,33.164062
208.133331,438.266663,106.53334,33.164062
225.466675,412.266663,119.066666,33.164062
237.199997,449.466675,108.0,33.167969
226.399994,435.600006,138.0,33.164062
215.466675,440.800018,114.133331,33.167969
235.733337,432.799988,111.73333,33.167969
235.466675,412.400024,114.0,33.167969
226.800003,435.866669,117.066666,33.167969
226.53334,438.533325,118.133331,33.171875
220.400009,435.600006,126.666672,33.171875
219.599991,438.800018,117.333336,33.171875
221.600006,439.333344,118.133331,33.167969
218.666672,434.933319,116.933334,33.171875
232.133331,438.266663,108.133331,33.175781
232.666656,438.533325,138.266663,33.171875
223.333344,436.666687,94.0,33.175781
225.733337,438.266663,129.866669,33.171875
230.93335,439.199982,107.333336,33.175781
204.266663,435.733337,116.666672,33.175781
235.599991,438.0,109.733337,33.179688
224.0,435.333313,115.466675,33.175781
240.400009,441.06665,112.533333,33.179688
227.600006,410.400024,114.799995,33.179688
227.333344,452.0,111.73333,33.179688
226.0,436.399994,96.666672,33.179688
219.333328,437.06665,116.26667,33.183594
226.0,437.06665,109.066666,33.183594
229.866653,419.199982,118.26667,33.183594
223.199997,438.93335,129.733337,33.183594
232.666656,437.866669,112.666664,33.179688
230.93335,439.333344,108.933334,33.183594
200.133347,433.733337,114.399994,33.1875
231.466675,430.666656,115.866669,33.183594
227.333344,426.799988,109.866669,33.1875
235.200012,442.0,116.26667,33.1875
232.933334,435.866669,114.0,33.191406
227.066666,438.266663,134.133331,33.1875
226.53334,438.800018,106.666672,33.191406
236.0,437.733337,116.133339,33.1875
225.466675,436.0,108.666672,33.191406
227.066666,437.333344,116.26667,33.191406
223.600006,437.599976,106.666672,33.191406
212.800003,437.200012,115.866669,33.191406
235.200012,436.0,108.133331,33.195312
228.133331,436.933319,132.533325,33.199219
199.733337,438.800018,110.933334,33.195312
234.666672,423.066681,115.600006,33.195312
224.933334,444.133331,111.199997,33.203125
231.600006,436.0,110.400002,33.191406
229.466675,413.466675,116.133339,33.203125
230.0,445.333313,116.53334,33.199219
222.0,437.466675,124.933327,33.203125
223.066681,407.866669,107.600006,33.203125
233.46666,451.466675,117.200005,33.199219
230.93335,439.866669,136.800003,33.203125
225.866669,434.0,109.333336,33.203125
238.266663,438.533325,112.399994,33.203125
228.533325,408.0,115.466675,33.207031
233.066681,441.466675,138.266663,33.207031
209.06665,435.200012,114.533325,33.207031
228.533325,442.133331,115.066673,33.207031
229.333328,439.466675,103.73333,33.207031
232.0,437.466675,115.066673,33.207031
229.866653,435.466644,110.266663,33.210938
228.133331,440.666656,128.0,33.210938
223.866669,439.333344,108.0,33.210938
234.933334,437.466675,116.133339,33.210938
191.333328,436.933319,106.26667,33.210938
233.333344,437.599976,114.133331,33.210938
223.333344,438.666656,130.933334,33.214844
237.733322,439.733307,104.399994,33.214844
229.199997,437.599976,112.266663,33.214844
229.599991,409.466675,111.199997,33.214844
223.066681,436.533325,138.133331,33.21875
236.266663,439.733307,99.866669,33.21875
223.600006,418.399994,114.933327,33.222656
231.866669,438.800018,130.533325,33.222656
224.666672,437.466675,108.400002,33.226562
220.533325,438.133301,109.333336,33.230469
226.399994,441.600006,114.399994,33.222656
233.600006,438.533325,112.933334,33.222656
228.533325,436.666687,114.399994,33.226562
234.933334,423.600006,114.266663,33.226562
230.533325,449.333344,115.333336,33.230469
231.466675,437.06665,115.333336,33.230469
224.400009,408.93335,110.0,33.230469
234.533325,439.466675,130.800003,33.230469
229.333328,438.399994,100.533333,33.230469
250.133347,437.866669,117.466667,33.234375
224.933334,446.133362,109.466667,33.234375
233.066681,437.200012,115.466675,33.234375
234.0,437.599976,109.333336,33.238281
236.266663,440.666656,112.266663,33.238281
202.53334,436.533325,112.133331,33.242188
238.266663,425.200012,114.266663,33.238281
229.06665,452.666656,112.666664,33.242188
246.133331,437.599976,113.066666,33.242188
224.133331,448.533325,114.799995,33.242188
231.600006,438.666656,100.533333,33.242188
208.399994,436.399994,113.599998,33.246094
233.866669,439.599976,135.200012,33.246094
224.266663,436.133362,115.066673,33.246094
237.199997,436.533325,110.133331,33.25
235.733337,444.933319,116.0,33.25
225.466675,438.93335,112.666664,33.253906
222.266678,437.866669,139.600006,33.25
246.399994,437.599976,113.199997,33.253906
229.866653,450.0,114.533325,33.253906
217.733322,437.599976,114.266663,33.253906
230.93335,427.733337,112.399994,33.257812
234.266663,448.266663,115.200005,33.261719
231.333328,438.533325,124.933327,33.257812
216.0,438.399994,113.866661,33.261719
239.599991,435.600006,112.266663,33.261719
229.333328,439.866669,132.133331,33.257812
233.199997,440.266693,102.399994,33.261719
248.133331,439.733307,115.333336,33.265625
228.933334,449.599976,112.399994,33.265625
230.266663,439.866669,113.73333,33.265625
210.93335,438.399994,111.866669,33.269531
234.666672,436.666687,107.866669,33.265625
212.399994,435.066681,112.933334,33.269531
240.666672,435.200012,111.066666,33.269531
237.600006,446.0,113.46666,33.273438
247.600006,438.266663,112.0,33.269531
229.866653,446.266663,114.133331,33.273438
224.933334,437.333344,133.733337,33.277344
217.866669,438.266663,113.73333,33.277344
230.533325,438.93335,138.133331,33.285156
218.266663,438.800018,113.73333,33.28125
226.399994,442.133331,112.133331,33.285156
234.799988,439.199982,113.066666,33.285156
230.400009,412.0,114.266663,33.289062
231.600006,438.93335,134.666656,33.289062
224.533325,434.0,110.933334,33.289062
235.066666,452.0,114.933327,33.289062
246.933319,433.466675,115.600006,33.292969
227.199997,438.399994,135.733337,33.289062
216.399994,436.399994,114.533325,33.292969
234.266663,439.466675,138.0,33.296875
233.733337,441.06665,134.799988,33.296875
227.46666,436.533325,111.599998,33.296875
224.400009,438.399994,139.066666,33.296875
243.600006,438.800018,114.933327,33.300781
238.799988,429.599976,114.666664,33.300781
232.0,438.133301,103.333328,33.296875
227.333344,438.666656,142.533325,33.300781
238.266663,423.733337,116.0,33.304688
228.666672,436.799988,109.466667,33.308594
232.266678,439.06665,140.0,33.3125
239.199997,434.799988,110.133331,33.3125
236.266663,438.800018,101.466667,33.308594
229.199997,436.133362,112.399994,33.308594
234.266663,455.466644,115.733337,33.3125
190.800003,435.466644,109.733337,33.308594
235.599991,440.0,112.933334,33.3125
226.800003,436.399994,101.599998,33.320312
234.533325,452.0,114.0,33.3125
222.399994,431.466675,113.46666,33.320312
232.800003,445.333313,198.133331,33.320312
224.533325,418.0,76.266663,33.324219
234.133331,342.93335,106.800003,33.324219
224.799988,531.200012,114.133331,33.332031
196.933319,433.600006,114.799995,33.320312
236.666656,443.600006,205.333328,33.324219
227.733322,435.600006,16.4,33.324219
229.733337,446.0,184.133331,33.328125
222.53334,417.866669,66.133331,33.332031
283.866669,442.0,116.133339,33.332031
229.06665,433.733337,112.933334,33.332031
231.200012,434.933319,115.333336,33.335938
226.399994,514.133362,114.133331,33.347656
272.0,440.400024,172.53334,33.34375
229.199997,423.066681,70.800003,33.347656
225.866669,434.0,114.266663,33.347656
223.333344,431.199982,115.333336,33.351562
226.133331,469.06665,114.799995,33.359375
226.399994,437.06665,132.266663,33.347656
193.333344,432.533325,114.133331,33.351562
222.666656,350.800018,115.733337,33.355469
225.866669,435.200012,120.933334,33.359375
224.266663,434.799988,112.266663,33.351562
208.133331,436.133362,115.466675,33.355469
315.200012,441.733337,151.600006,33.359375
234.666672,438.93335,117.466667,33.355469
308.133331,439.599976,158.0,33.363281
229.733337,532.0,117.733337,33.367188
235.866669,437.733337,60.400002,33.355469
227.46666,357.599976,116.0,33.363281
245.200012,444.399994,199.466675,33.371094
224.799988,530.400024,115.733337,33.375
231.866669,441.06665,37.866665,33.359375
223.600006,336.266663,114.0,33.367188
234.666672,447.733337,185.066666,33.375
226.0,439.06665,113.46666,33.382812
213.733337,459.599976,117.600006,33.382812
190.400009,431.733337,111.866669,33.371094
133.733337,437.466675,118.26667,33.378906
224.799988,421.199982,113.066666,33.382812
259.333313,443.333313,195.066666,33.386719
221.333328,437.466675,108.400002,33.382812
233.733337,352.400024,116.400002,33.382812
277.333344,442.93335,168.666672,33.394531
215.466675,453.466675,117.333336,33.398438
220.93335,437.466675,113.866661,33.390625
177.866669,434.799988,115.200005,33.390625
225.466675,341.466675,117.200005,33.394531
288.133331,439.06665,187.866669,33.398438
224.0,439.599976,20.0,33.398438
233.600006,436.0,110.666664,33.390625
201.200012,436.666687,118.800003,33.398438
225.466675,432.133331,111.599998,33.398438
224.266663,436.399994,35.466667,33.40625
233.733337,375.866669,114.666664,33.40625
225.333328,438.93335,116.933334,33.414062
316.0,443.200012,119.466667,33.410156
221.733337,430.93335,125.866669,33.410156
214.933334,438.399994,112.0,33.414062
161.466675,431.199982,114.399994,33.414062
225.066666,439.199982,114.0,33.414062
221.600006,383.200012,112.933334,33.421875
189.866653,440.533325,119.333336,33.421875
220.400009,431.06665,112.533333,33.421875
232.933334,441.600006,115.333336,33.429688
260.0,438.800018,138.399994,33.425781
253.46666,444.799988,121.199997,33.425781
313.866669,439.733307,159.866669,33.4375
263.866669,442.799988,202.933334,33.441406
220.266663,347.733337,111.199997,33.433594
283.600006,440.133331,176.53334,33.433594
169.599991,438.0,112.0,33.429688
226.266663,368.0,115.866669,33.445312
305.466675,444.933319,157.199997,33.4375
316.399994,433.866638,112.933334,33.449219
302.933319,448.533325,211.200012,33.441406
168.133331,430.400024,112.0,33.445312
225.333328,460.800018,197.600006,33.453125
232.399994,434.133331,91.599998,33.449219
132.666656,436.666687,119.733337,33.449219
210.133347,518.799988,134.666656,33.457031
278.799988,430.533325,116.53334,33.464844
229.599991,437.866669,112.133331,33.46875
229.733337,371.333344,117.733337,33.464844
212.666656,435.733337,111.466667,33.46875
266.666656,437.866669,204.533325,33.472656
229.333328,447.866669,169.733337,33.476562
289.06665,438.533325,206.399994,33.476562
213.600006,438.800018,116.133339,33.480469
179.866653,432.93335,109.466667,33.476562
229.866653,435.600006,125.600006,33.480469
231.066666,436.933319,57.066666,33.488281
225.733337,436.0,81.73333,33.488281
323.600006,447.466675,162.666656,33.488281
225.733337,429.599976,114.933327,33.488281
233.333344,433.200012,114.933327,33.492188
223.333344,431.600006,114.133331,33.492188
228.266663,441.333344,123.199997,33.492188
251.466675,438.666656,186.666656,33.488281
136.133331,440.266693,117.600006,33.496094
215.333328,440.400024,112.799995,33.492188
228.266663,438.0,118.533333,33.507812
209.466675,521.200012,108.400002,33.507812
303.333344,411.333344,120.800003,33.507812
221.200012,520.400024,110.533333,33.507812
232.800003,334.533356,118.933334,33.507812
122.266663,438.0,110.666664,33.519531
161.733337,434.399994,121.333328,33.523438
220.133347,435.733337,111.866669,33.523438
127.333336,431.06665,115.333336,33.519531
223.600006,439.599976,72.666672,33.523438
235.066666,466.533325,129.333328,33.523438
222.133331,462.400024,204.533325,33.523438
231.866669,434.266663,76.799995,33.53125
224.400009,436.933319,121.866669,33.53125
249.599991,386.0,112.0,33.523438
220.533325,436.799988,120.666664,33.53125
225.599991,487.599976,116.933334,33.539062
306.666656,437.333344,118.800003,33.53125
221.600006,510.0,112.266663,33.53125
268.266663,438.533325,166.800003,33.53125
272.800018,342.0,116.400002,33.546875
278.533325,429.199982,113.199997,33.546875
232.666656,442.0,129.733337,33.546875
197.733322,430.533325,113.73333,33.550781
282.933319,434.266663,124.266663,33.550781
221.066666,417.333344,38.800003,33.554688
233.199997,438.266663,131.199997,33.554688
223.866669,363.733337,108.666672,33.5625
237.066666,434.533356,138.800003,33.554688
181.600006,437.866669,107.733337,33.566406
229.599991,411.733337,119.199997,33.5625
266.0,425.600006,110.666664,33.570312
236.399994,336.533325,117.466667,33.5625
223.199997,439.466675,92.133331,33.574219
231.866669,429.866669,115.066673,33.574219
234.0,514.533325,117.600006,33.570312
232.933334,429.06665,64.133331,33.585938
223.733337,441.600006,71.466667,33.578125
300.0,439.866669,208.133331,33.585938
281.733337,446.666687,203.733337,33.589844
231.466675,433.333313,58.533333,33.59375
226.800003,426.533325,78.666672,33.589844
227.333344,438.399994,93.066666,33.59375
230.666672,431.06665,66.666664,33.597656
233.866669,442.666656,128.399994,33.601562
226.399994,436.533325,137.466675,33.597656
320.400024,448.800018,202.133331,33.605469
232.53334,423.866638,75.333336,33.605469
237.866669,478.0,121.333328,33.621094
231.866669,442.799988,111.333328,33.609375
213.866669,432.666656,121.199997,33.625
122.266663,436.933319,108.26667,33.625
221.866669,505.200012,118.666672,33.625
232.666656,515.333313,115.733337,33.625
221.066666,429.733307,132.266663,33.625
159.066666,441.06665,110.933334,33.636719
210.133347,449.866669,112.133331,33.640625
238.266663,468.0,120.400002,33.640625
221.600006,428.0,114.0,33.632812
230.93335,441.733337,116.26667,33.632812
252.800003,442.266663,108.26667,33.640625
236.399994,425.066681,121.066666,33.648438
224.799988,436.933319,121.466667,33.640625
153.46666,433.466675,122.799995,33.652344
213.600006,451.333344,113.199997,33.652344
232.800003,512.266663,118.666672,33.65625
219.733337,439.866669,113.46666,33.652344
228.933334,431.06665,117.066666,33.664062
224.0,426.933319,117.733337,33.660156
267.066681,436.666687,192.800003,33.671875
265.200012,446.533325,132.933334,33.675781
311.866669,436.133362,162.53334,33.679688
221.600006,438.0,121.333328,33.679688
263.866669,441.733337,202.266678,33.679688
225.066666,504.266663,124.399994,33.6875
223.866669,434.666687,123.599998,33.675781
211.200012,463.333313,122.0,33.6875
230.0,444.533356,44.133335,33.691406
232.0,430.0,119.866669,33.6875
180.133347,438.93335,109.866669,33.695312
308.666656,435.600006,153.066666,33.699219
230.133347,524.666687,118.26667,33.703125
230.133347,459.599976,113.199997,33.703125
224.933334,477.06665,116.26667,33.699219
251.866669,417.466675,107.333336,33.710938
224.799988,355.333313,120.800003,33.722656
225.333328,439.466675,50.933334,33.714844
215.866669,431.600006,120.666664,33.722656
228.799988,362.533325,119.599998,33.71875
187.46666,429.466675,112.133331,33.722656
230.0,441.733337,128.800003,33.726562
229.466675,394.666687,116.0,33.726562
235.466675,440.266693,130.933334,33.730469
217.333344,421.06665,109.466667,33.730469
234.0,430.0,118.400002,33.742188
223.733337,428.399994,118.666672,33.734375
260.799988,443.200012,202.53334,33.738281
291.600006,443.066681,125.600006,33.746094
251.066666,443.066681,130.266663,33.746094
232.800003,444.399994,154.799988,33.75
238.0,431.06665,119.733337,33.753906
222.800003,430.400024,52.533337,33.753906
210.800003,430.666656,121.199997,33.75
217.066666,441.06665,111.466667,33.761719
233.46666,429.466675,52.533337,33.757812
221.466675,456.666687,98.26667,33.757812
227.066666,414.399994,111.599998,33.757812
228.666672,481.06665,120.933334,33.761719
317.066681,443.466675,144.533325,33.765625
188.399994,436.0,122.933334,33.773438
209.599991,518.400024,109.199997,33.777344
233.333344,417.599976,125.200005,33.789062
223.733337,448.533325,44.666668,33.777344
220.133347,447.733337,120.400002,33.789062
222.666656,439.466675,44.400002,33.78125
158.933334,430.533325,120.0,33.789062
225.733337,501.600006,121.73333,33.792969
230.266663,434.799988,39.599998,33.789062
220.266663,437.866669,119.599998,33.792969
231.600006,414.533356,110.0,33.796875
231.600006,435.733337,122.799995,33.804688
224.133331,437.200012,72.399994,33.808594
227.46666,482.133331,124.266663,33.808594
232.399994,438.0,117.466667,33.808594
316.666656,435.333313,140.800003,33.8125
232.666656,519.466675,111.866669,33.8125
224.0,428.0,130.666672,33.8125
158.266663,441.466675,111.199997,33.820312
218.933334,415.733337,94.399994,33.828125
236.133331,441.866699,118.800003,33.820312
190.93335,429.466675,108.133331,33.824219
263.466675,446.399994,208.533325,33.832031
220.133347,436.933319,104.399994,33.832031
223.333344,436.933319,125.466675,33.835938
218.933334,358.266663,107.866669,33.84375
291.06665,443.733337,145.066666,33.847656
223.333344,440.533325,106.800003,33.851562
173.46666,431.466675,122.0,33.859375
217.600006,372.0,110.266663,33.863281
256.799988,436.0,195.599991,33.867188
223.199997,439.199982,125.733337,33.863281
222.399994,431.600006,111.066666,33.863281
226.933319,423.200012,86.26667,33.863281
230.533325,430.93335,113.333328,33.875
220.533325,434.399994,114.933327,33.867188
230.133347,438.266663,106.400002,33.871094
227.46666,440.0,129.733337,33.871094
225.733337,433.066681,108.666672,33.878906
222.133331,428.666656,133.599991,33.875
231.200012,443.466675,108.133331,33.882812
308.799988,434.533356,143.866669,33.890625
251.733337,446.266663,113.46666,33.890625
219.199997,364.266663,110.533333,33.902344
221.066666,476.533325,119.333336,33.910156
226.800003,429.333344,116.933334,33.902344
225.333328,444.666687,141.866669,33.90625
217.600006,366.266663,105.466675,33.902344
232.800003,423.600006,113.73333,33.917969
181.466675,437.200012,105.733337,33.910156
256.399994,438.533325,124.533325,33.914062
288.0,443.066681,112.399994,33.914062
228.266663,429.733307,127.066666,33.914062
229.199997,409.06665,112.533333,33.917969
225.599991,430.133331,81.333328,33.917969
234.933334,388.666656,125.600006,33.917969
236.933319,441.199982,107.333336,33.929688
232.0,436.666687,125.733337,33.921875
209.466675,437.866669,105.066673,33.933594
235.599991,432.93335,91.73333,33.9375
220.800003,408.266663,109.866669,33.9375
231.066666,432.533325,45.066666,33.941406
229.599991,446.0,178.266663,33.945312
235.733337,415.066681,105.866669,33.953125
236.53334,443.600006,171.066666,33.953125
234.0,431.600006,115.866669,33.949219
304.666687,445.200012,132.0,33.953125
269.333313,437.866669,153.866669,33.957031
192.933334,436.0,117.733337,33.964844
303.066681,437.06665,118.800003,33.976562
226.133331,439.599976,116.53334,33.96875
232.0,441.733337,35.066666,33.984375
199.06665,432.133331,119.866669,33.976562
268.133331,444.0,152.533325,33.984375
226.266663,434.799988,122.666664,33.980469
232.266678,442.0,126.933334,34.0
243.333344,432.93335,173.866669,34.0
228.0,441.466675,110.933334,33.996094
218.799988,466.266663,119.866669,34.003906
232.266678,516.666687,123.866661,34.0
221.866669,415.066681,109.466667,34.003906
230.133347,471.06665,122.399994,34.011719
204.799988,433.066681,105.600006,34.011719
234.533325,374.933319,125.600006,34.011719
223.333344,434.133331,64.400002,34.019531
230.666672,436.266663,124.133331,34.023438
224.533325,437.733337,117.600006,34.023438
236.133331,432.266663,128.0,34.027344
219.06665,442.93335,141.600006,34.027344
231.600006,432.133331,82.266663,34.03125
224.533325,433.600006,108.533333,34.03125
232.53334,373.600006,117.466667,34.035156
222.666656,459.866669,112.0,34.050781
236.53334,430.133331,118.533333,34.046875
220.666672,392.133331,114.0,34.050781
235.066666,433.866638,115.333336,34.054688
220.93335,423.333313,120.533333,34.058594
299.866669,438.533325,133.866669,34.0625
227.733322,435.866669,75.199997,34.058594
254.0,444.399994,109.599998,34.0625
217.600006,446.0,124.666664,34.066406
253.199997,443.466675,143.066666,34.074219
231.200012,435.866669,129.866669,34.066406
250.533325,445.466644,132.399994,34.070312
221.066666,428.533325,125.066673,34.078125
231.466675,428.0,60.799999,34.074219
155.866669,434.133331,109.599998,34.082031
224.400009,436.133362,155.333344,34.085938
232.53334,435.066681,62.133331,34.089844
222.266678,356.399994,123.199997,34.09375
231.600006,443.733337,120.800003,34.109375
218.533325,448.133301,114.399994,34.113281
232.53334,441.866699,113.46666,34.117188
222.933334,492.799988,117.066666,34.113281
248.399994,443.066681,170.533325,34.109375
220.666672,447.200012,110.400002,34.117188
236.0,439.599976,126.800003,34.121094
262.399994,437.06665,147.466675,34.128906
223.333344,485.866669,148.266663,34.125
219.199997,437.866669,88.26667,34.132812
235.466675,434.0,124.533325,34.140625
225.466675,440.400024,63.066669,34.148438
226.266663,374.933319,123.866661,34.148438
213.733337,437.466675,112.399994,34.148438
231.466675,433.466675,107.600006,34.15625
180.0,434.133331,124.266663,34.15625
231.466675,438.800018,51.466667,34.152344
231.866669,432.400024,120.800003,34.160156
227.199997,432.799988,133.199997,34.164062
276.933319,426.799988,118.666672,34.164062
177.066666,440.666656,111.066666,34.167969
229.733337,430.0,113.46666,34.167969
230.666672,439.06665,100.0,34.1875
219.866653,428.800018,112.799995,34.183594
204.400009,440.400024,120.0,34.183594
226.933319,436.399994,110.666664,34.1875
235.466675,436.399994,122.266663,34.207031
185.466675,435.600006,106.666672,34.210938
299.866669,441.600006,180.666672,34.207031
265.600006,386.399994,110.266663,34.210938
230.800003,432.666656,115.066673,34.214844
216.933319,480.400024,159.600006,34.222656
236.666656,433.333313,122.399994,34.222656
229.333328,380.133331,114.666664,34.226562
226.266663,430.266693,117.466667,34.230469
226.0,429.466675,111.466667,34.238281
302.666656,436.133362,122.799995,34.234375
232.266678,439.599976,123.599998,34.246094
225.066666,503.466675,114.799995,34.25
228.133331,435.066681,116.400002,34.246094
227.866669,432.133331,111.199997,34.246094
233.733337,422.400024,124.533325,34.25
221.066666,435.733337,117.600006,34.253906
147.466675,434.799988,122.666664,34.257812
227.199997,518.133301,109.466667,34.265625
233.066681,433.600006,128.399994,34.261719
271.866669,442.93335,113.066666,34.273438
188.799988,431.333344,121.199997,34.273438
229.199997,440.666656,119.466667,34.28125
234.666672,434.799988,115.466675,34.292969
218.799988,474.399994,119.199997,34.304688
222.933334,401.333344,114.0,34.300781
233.600006,439.599976,117.333336,34.304688
227.46666,440.400024,124.533325,34.304688
230.800003,433.333313,121.866669,34.308594
223.600006,455.466644,107.600006,34.320312
234.933334,440.0,184.400009,34.316406
228.399994,436.533325,61.599998,34.316406
289.599976,436.799988,122.399994,34.320312
221.333328,431.733337,108.666672,34.324219
235.066666,435.333313,120.666664,34.320312
302.133331,444.533356,119.599998,34.324219
169.599991,431.199982,116.400002,34.324219
171.733337,439.599976,111.599998,34.332031
199.199997,430.133331,120.133331,34.335938
298.266663,443.333313,120.533333,34.34375
221.333328,380.0,112.533333,34.34375
205.200012,438.399994,112.266663,34.34375
225.200012,445.333313,114.0,34.355469
233.199997,432.93335,123.46666,34.359375
221.066666,434.266663,108.800003,34.359375
234.933334,437.733337,94.133331,34.363281
269.333313,440.133331,111.599998,34.375
235.466675,434.266663,130.0,34.382812
214.666672,444.133331,111.333328,34.378906
229.333328,383.600006,119.866669,34.378906
224.133331,437.06665,118.533333,34.382812
219.733337,496.533325,109.333336,34.386719
233.600006,423.866638,122.533333,34.394531
224.0,427.866669,81.333328,34.402344
226.800003,438.266663,180.666672,34.394531
216.0,478.93335,111.199997,34.402344
222.800003,434.533356,122.133331,34.398438
222.53334,438.399994,91.599998,34.40625
224.0,436.266663,155.066666,34.414062
220.800003,430.400024,71.73333,34.414062
245.066666,438.133301,171.733337,34.417969
168.266663,437.333344,117.466667,34.421875
223.46666,432.666656,118.800003,34.429688
221.866669,392.266663,120.666664,34.433594
172.933334,436.133362,109.599998,34.429688
230.266663,434.133331,118.0,34.4375
224.133331,436.933319,41.199997,34.445312
270.799988,435.333313,138.399994,34.441406
192.266678,437.200012,112.399994,34.449219
233.46666,434.933319,129.466675,34.449219
220.800003,506.266663,113.46666,34.457031
151.333328,434.666687,111.599998,34.457031
221.066666,438.399994,176.933319,34.457031
234.533325,434.266663,112.933334,34.460938
220.93335,437.200012,89.866669,34.472656
172.800003,436.266663,107.600006,34.46875
223.866669,431.199982,117.866669,34.472656
232.266678,438.533325,120.0,34.484375
222.666656,403.600006,120.266663,34.480469
227.866669,439.06665,109.733337,34.484375
218.533325,492.133331,116.800003,34.488281
218.0,453.866638,116.933334,34.492188
292.0,437.200012,117.200005,34.492188
221.066666,436.933319,119.866669,34.503906
212.933334,433.333313,112.666664,34.507812
229.06665,435.466644,129.733337,34.511719
228.399994,437.06665,48.26667,34.511719
230.266663,414.666687,118.800003,34.515625
196.399994,437.06665,112.799995,34.515625
224.400009,432.266663,118.533333,34.523438
234.266663,440.266693,48.533333,34.527344
223.46666,430.666656,113.599998,34.523438
208.399994,437.200012,118.800003,34.527344
222.266678,433.733337,125.066673,34.539062
231.866669,433.466675,74.666664,34.539062
237.199997,494.799988,115.600006,34.542969
218.533325,425.733337,115.466675,34.550781
205.200012,437.866669,116.133339,34.546875
227.733322,432.533325,113.066666,34.550781
231.200012,436.799988,65.466667,34.558594
226.133331,438.800018,112.133331,34.558594
221.066666,400.800018,116.400002,34.5625
166.666656,436.933319,111.599998,34.5625
230.800003,445.600006,117.733337,34.566406
266.133331,439.733307,136.800003,34.574219
222.0,433.866638,115.333336,34.574219
232.666656,440.133331,60.0,34.582031
222.133331,433.066681,111.199997,34.589844
232.53334,436.133362,117.600006,34.59375
222.399994,426.799988,98.133331,34.601562
223.733337,437.866669,118.133331,34.605469
254.133331,437.733337,111.73333,34.601562
230.0,429.866669,118.533333,34.601562
213.46666,436.266663,112.666664,34.605469
214.266663,433.066681,117.200005,34.613281
223.46666,489.333344,117.200005,34.613281
228.399994,438.133301,145.733337,34.621094
210.0,435.600006,116.666672,34.621094
221.200012,434.0,118.400002,34.625
216.666656,474.0,118.400002,34.628906
292.666656,436.533325,117.466667,34.632812
228.533325,437.599976,177.46666,34.632812
210.266663,456.399994,114.133331,34.640625
214.799988,435.733337,117.466667,34.640625
223.333344,469.06665,112.666664,34.652344
230.400009,481.466675,117.733337,34.652344
224.799988,437.733337,112.799995,34.65625
222.666656,426.666687,118.400002,34.660156
228.933334,438.399994,60.266666,34.667969
229.866653,436.933319,112.533333,34.675781
223.199997,435.466644,113.333328,34.671875
198.666672,434.799988,114.933327,34.683594
270.0,438.266663,117.200005,34.6875
226.266663,436.799988,127.066666,34.6875
220.533325,368.800018,115.333336,34.695312
194.666672,433.600006,114.666664,34.695312
215.866669,446.0,117.466667,34.707031
182.800003,435.333313,111.199997,34.707031
268.133331,436.533325,116.666672,34.714844
226.399994,401.866699,115.600006,34.710938
237.733322,438.0,116.800003,34.722656
229.599991,438.133301,100.533333,34.722656
221.200012,438.133301,129.199997,34.730469
236.133331,437.200012,117.733337,34.730469
221.866669,435.733337,110.933334,34.730469
229.333328,437.200012,162.933334,34.738281
224.799988,435.600006,107.466667,34.738281
232.133331,437.866669,115.333336,34.75
230.800003,434.266663,126.933334,34.75
236.0,437.733337,117.333336,34.753906
171.066666,432.93335,118.533333,34.753906
219.599991,434.799988,136.800003,34.757812
229.866653,434.533356,113.199997,34.765625
228.399994,436.933319,115.066673,34.777344
220.133347,427.866669,111.599998,34.796875
219.333328,429.466675,112.133331,34.808594
227.46666,440.400024,143.599991,34.804688
227.600006,437.333344,130.266663,34.808594
218.799988,438.93335,116.933334,34.804688
224.0,435.200012,127.200005,34.808594
224.400009,437.200012,131.46666,34.8125
232.133331,394.799988,117.333336,34.808594
169.599991,432.799988,117.733337,34.808594
227.866669,439.199982,129.199997,34.816406
220.0,432.0,112.666664,34.816406
221.333328,432.533325,116.133339,34.816406
230.666672,436.933319,115.200005,34.816406
225.866669,434.933319,82.933334,34.824219
227.333344,416.799988,115.466675,34.828125
219.866653,434.666687,155.466675,34.832031
222.399994,439.199982,117.866669,34.835938
224.799988,434.399994,70.933334,34.839844
174.0,437.333344,115.333336,34.847656
218.399994,431.866699,114.666664,34.851562
232.266678,433.200012,98.666672,34.859375
222.666656,434.133331,150.533325,34.855469
220.533325,440.0,118.0,34.859375
179.733337,431.06665,111.73333,34.867188
229.333328,402.533325,117.600006,34.867188
230.93335,434.533356,138.53334,34.875
206.399994,437.466675,117.466667,34.875
221.333328,432.533325,115.866669,34.878906
228.666672,453.200012,120.666664,34.886719
221.733337,436.399994,140.666672,34.886719
231.866669,403.600006,117.066666,34.890625
217.066666,381.866699,113.46666,34.894531
229.733337,426.266663,119.199997,34.902344
211.066666,437.599976,114.933327,34.90625
209.06665,432.799988,115.200005,34.90625
220.266663,480.266693,115.733337,34.90625
232.266678,434.266663,116.53334,34.914062
229.599991,479.06665,118.133331,34.917969
220.800003,436.799988,115.200005,34.921875
237.46666,439.466675,118.800003,34.921875
226.133331,447.866669,117.066666,34.925781
232.133331,434.799988,139.333328,34.929688
271.333344,436.799988,125.866669,34.9375
218.533325,456.933319,117.866669,34.945312
229.733337,435.200012,116.0,34.953125
219.733337,387.599976,115.200005,34.964844
229.333328,440.0,113.866661,34.960938
193.333344,431.333344,115.466675,34.953125
224.933334,437.466675,115.333336,34.964844
222.133331,432.266663,119.733337,34.960938
231.066666,437.733337,115.600006,34.96875
228.0,433.466675,114.266663,34.96875
201.733337,434.799988,118.26667,34.972656
218.933334,474.266663,113.73333,34.980469
229.466675,434.533356,69.466667,34.980469
228.133331,428.266663,113.866661,34.984375
224.799988,434.266663,67.466667,34.992188
220.800003,437.866669,112.533333,35.003906
231.733337,412.133331,116.666672,35.0
183.600006,441.06665,118.533333,35.007812
256.666656,434.533356,114.933327,35.011719
233.199997,439.599976,117.600006,35.015625
263.866669,435.333313,111.599998,35.019531
229.866653,435.066681,119.066666,35.019531
228.399994,435.333313,64.933334,35.023438
231.200012,376.533325,117.600006,35.03125
220.400009,439.199982,85.466675,35.03125
228.799988,438.800018,116.666672,35.039062
228.533325,439.733307,114.266663,35.039062
245.599991,435.600006,113.866661,35.042969
228.266663,413.200012,119.866669,35.050781
223.333344,432.93335,68.800003,35.050781
259.333313,440.93335,122.133331,35.0625
196.53334,435.866669,109.599998,35.066406
233.066681,434.266663,80.266663,35.066406
266.533325,435.866669,112.266663,35.070312
232.0,420.666656,118.133331,35.070312
229.733337,440.93335,114.666664,35.074219
222.933334,433.200012,118.400002,35.082031
167.733322,437.200012,115.466675,35.082031
234.400009,432.133331,83.866661,35.085938
228.533325,436.133362,116.933334,35.089844
232.800003,430.266693,82.933334,35.097656
210.133347,445.333313,117.466667,35.097656
230.533325,435.066681,116.133339,35.109375
227.066666,436.799988,150.666672,35.117188
188.666672,435.466644,114.666664,35.128906
221.200012,435.866669,123.46666,35.132812
236.266663,437.733337,113.199997,35.128906
227.733322,422.93335,112.0,35.128906
216.0,459.733307,118.666672,35.144531
231.200012,435.200012,118.133331,35.148438
219.733337,384.666687,119.066666,35.144531
226.266663,433.466675,110.266663,35.148438
226.53334,432.93335,78.26667,35.15625
221.200012,447.333344,112.799995,35.160156
221.600006,434.533356,120.400002,35.160156
229.06665,393.866638,115.600006,35.164062
172.666656,431.333344,117.466667,35.164062
220.800003,436.266663,147.199997,35.167969
224.933334,405.600006,111.466667,35.167969
224.133331,429.333344,116.26667,35.171875
230.533325,441.600006,123.866661,35.175781
228.666672,432.799988,76.666664,35.183594
227.733322,438.666656,122.933334,35.1875
225.733337,432.533325,127.466667,35.1875
224.400009,436.266663,109.866669,35.195312
224.666672,432.799988,127.866669,35.195312
230.0,438.800018,114.0,35.199219
216.933319,430.666656,134.0,35.207031
229.733337,443.200012,123.73333,35.210938
220.266663,432.666656,95.866669,35.21875
184.133331,432.133331,121.466667,35.226562
230.133347,450.133331,114.133331,35.230469
231.333328,431.06665,118.533333,35.238281
223.46666,441.733337,114.666664,35.234375
221.200012,430.266693,125.866669,35.25
225.866669,440.0,141.866669,35.265625
195.200012,429.466675,109.066666,35.265625
232.0,438.93335,117.466667,35.265625
218.666672,431.466675,86.400002,35.265625
270.0,437.733337,122.133331,35.261719
222.800003,433.466675,113.866661,35.269531
226.266663,440.0,130.399994,35.269531
184.933334,429.866669,112.0,35.28125
225.866669,425.866669,121.866669,35.28125
224.0,462.666656,111.333328,35.289062
244.400009,436.0,122.266663,35.292969
222.266678,428.399994,109.066666,35.289062
223.066681,431.600006,117.200005,35.3125
241.466675,441.333344,112.666664,35.3125
224.266663,432.266663,151.733337,35.3125
168.133331,438.0,112.799995,35.316406
220.93335,431.06665,75.466667,35.320312
230.0,442.133331,111.73333,35.328125
228.0,418.93335,108.0,35.328125
227.600006,429.466675,103.333328,35.332031
210.533325,432.666656,109.599998,35.328125
224.933334,457.200012,122.0,35.339844
242.666656,432.133331,112.133331,35.347656
214.666672,442.0,121.066666,35.347656
224.533325,434.533356,109.466667,35.351562
225.333328,454.0,123.066666,35.355469
221.733337,454.0,110.0,35.363281
233.600006,433.733337,122.266663,35.363281
255.066666,437.333344,110.933334,35.371094
248.533325,436.666687,122.666664,35.371094
221.866669,426.133362,91.333328,35.375
232.133331,436.533325,132.266663,35.378906
227.866669,440.93335,122.266663,35.378906
230.666672,431.866699,77.733337,35.382812
220.533325,471.199982,110.666664,35.386719
278.93335,432.93335,120.266663,35.390625
224.666672,427.866669,118.933334,35.398438
188.666672,431.199982,114.533325,35.402344
218.666672,442.0,128.800003,35.40625
232.266678,437.333344,114.533325,35.414062
228.133331,437.733337,123.73333,35.417969
221.066666,433.200012,111.599998,35.421875
221.600006,383.466675,122.266663,35.421875
232.800003,433.600006,110.800003,35.421875
233.600006,438.133301,125.333336,35.429688
219.599991,443.200012,108.400002,35.429688
230.400009,438.800018,135.200012,35.433594
168.799988,434.266663,109.733337,35.433594
232.133331,424.133331,112.799995,35.441406
215.466675,436.933319,124.266663,35.449219
233.866669,436.266663,123.73333,35.457031
253.333344,436.533325,108.666672,35.464844
232.0,430.666656,129.066666,35.464844
235.466675,440.133331,113.199997,35.472656
195.733337,430.533325,122.666664,35.46875
222.666656,447.333344,111.866669,35.476562
229.599991,430.400024,111.199997,35.484375
229.466675,439.866669,119.333336,35.488281
229.06665,410.0,114.933327,35.492188
223.333344,466.0,117.600006,35.496094
227.199997,435.466644,116.53334,35.5
230.0,438.800018,123.199997,35.519531
225.333328,431.199982,110.133331,35.515625
211.333328,457.866669,120.133331,35.519531
221.733337,432.93335,108.933334,35.523438
227.866669,433.466675,122.666664,35.523438
226.0,434.0,119.599998,35.527344
227.333344,458.93335,124.666664,35.527344
219.333328,438.666656,116.133339,35.542969
228.666672,462.0,124.133331,35.546875
195.866669,436.266663,109.866669,35.554688
226.933319,477.06665,124.399994,35.554688
220.133347,476.0,113.199997,35.550781
229.733337,417.06665,121.599998,35.558594
218.399994,440.133331,91.599998,35.5625
269.733337,433.600006,125.066673,35.570312
225.599991,441.866699,95.066673,35.574219
228.399994,429.599976,133.333328,35.574219
207.066666,438.0,109.333336,35.574219
233.733337,420.266693,116.133339,35.578125
191.200012,440.93335,117.600006,35.585938
221.600006,416.666687,115.866669,35.585938
224.666672,441.600006,130.133331,35.59375
244.400009,429.599976,119.599998,35.59375
236.800003,463.200012,121.866669,35.597656
219.333328,429.333344,107.333336,35.605469
230.133347,443.066681,90.666664,35.605469
222.0,428.133301,121.466667,35.609375
234.133331,439.06665,86.666672,35.609375
218.399994,421.06665,89.199997,35.617188
234.0,474.933319,120.533333,35.621094
210.800003,432.266663,114.266663,35.625
258.266663,436.799988,122.266663,35.628906
270.400024,434.399994,109.599998,35.628906
227.199997,438.666656,122.0,35.636719
219.06665,447.200012,112.799995,35.640625
214.799988,449.599976,124.266663,35.640625
218.266663,448.266663,110.0,35.648438
228.666672,437.333344,122.799995,35.652344
235.866669,433.866638,112.0,35.65625
230.800003,437.333344,155.466675,35.664062
218.933334,408.133301,107.066666,35.667969
188.533325,438.0,124.799995,35.667969
225.599991,431.866699,108.400002,35.671875
229.466675,461.466675,126.53334,35.675781
215.066666,426.133362,107.333336,35.679688
232.800003,434.799988,125.333336,35.679688
217.733322,424.399994,101.866669,35.695312
229.599991,462.133331,124.399994,35.703125
250.93335,437.866669,110.533333,35.707031
231.466675,422.400024,124.666664,35.707031
213.733337,421.466675,107.733337,35.710938
219.866653,405.733337,122.266663,35.714844
226.0,411.466675,110.133331,35.722656
220.133347,418.266663,125.200005,35.734375
180.400009,438.399994,106.400002,35.738281
220.93335,427.200012,151.866669,35.742188
226.53334,441.06665,136.800003,35.746094
217.733322,428.800018,164.400009,35.746094
226.0,440.133331,124.533325,35.75
232.266678,459.333344,121.066666,35.75
217.600006,464.133331,114.0,35.746094
266.266663,428.93335,122.799995,35.757812
226.800003,440.666656,124.799995,35.761719
233.066681,423.866638,95.733337,35.78125
217.600006,431.333344,98.133331,35.785156
232.53334,429.199982,123.333328,35.785156
214.400009,425.333313,109.333336,35.792969
223.733337,395.866669,114.666664,35.800781
220.400009,438.93335,134.933334,35.796875
230.0,428.533325,136.400009,35.800781
218.399994,439.199982,138.399994,35.804688
219.733337,417.06665,105.600006,35.808594
224.0,446.666687,118.800003,35.808594
263.866669,426.133362,119.066666,35.820312
226.800003,440.93335,138.666672,35.832031
213.066681,432.93335,111.466667,35.84375
230.133347,440.133331,131.199997,35.847656
220.93335,426.799988,132.800003,35.855469
201.600006,440.800018,116.0,35.855469
226.133331,428.93335,110.666664,35.855469
223.066681,437.599976,123.46666,35.855469
226.666656,422.666656,114.266663,35.851562
227.199997,438.800018,129.066666,35.859375
227.46666,432.93335,123.866661,35.859375
204.0,436.133362,120.800003,35.867188
231.600006,432.0,115.200005,35.875
219.466675,458.133301,120.933334,35.875
221.066666,462.533325,108.26667,35.886719
231.066666,432.266663,133.46666,35.894531
225.599991,433.200012,104.133331,35.90625
185.200012,434.266663,121.599998,35.90625
218.933334,438.93335,125.200005,35.90625
229.06665,464.933319,124.799995,35.90625
226.933319,440.133331,112.399994,35.910156
223.866669,426.133362,109.199997,35.90625
220.266663,439.733307,80.400002,35.914062
234.533325,464.933319,122.533333,35.917969
248.266663,438.533325,112.133331,35.929688
226.0,420.93335,124.133331,35.9375
179.866653,438.133301,115.733337,35.9375
237.199997,429.06665,120.0,35.941406
218.666672,439.599976,112.666664,35.945312
229.466675,429.06665,144.399994,35.945312
219.866653,438.800018,115.866669,35.960938
232.933334,428.666656,115.600006,35.960938
218.533325,436.799988,114.266663,35.972656
228.399994,428.93335,119.866669,35.972656
232.666656,437.866669,119.866669,35.972656
218.266663,427.466675,125.200005,35.976562
234.666672,439.866669,119.333336,35.984375
223.333344,427.866669,128.53334,35.988281
228.399994,438.666656,132.666656,35.988281
253.066681,428.533325,110.933334,35.988281
229.466675,439.333344,121.199997,35.992188
221.733337,464.799988,112.0,35.996094
222.266678,462.799988,125.333336,35.996094
223.333344,472.93335,108.666672,36.007812
230.93335,427.866669,119.199997,36.019531
220.800003,429.466675,113.333328,36.019531
222.53334,431.600006,122.933334,36.019531
228.266663,437.333344,107.333336,36.023438
208.799988,433.866638,125.066673,36.027344
217.333344,421.866699,109.066666,36.03125
239.06665,429.733307,125.200005,36.035156
227.733322,438.93335,73.066666,36.039062
223.066681,433.333313,124.0,36.039062
226.399994,407.333344,108.0,36.046875
229.866653,430.266693,125.733337,36.058594
226.133331,431.06665,111.333328,36.058594
222.53334,430.400024,124.133331,36.066406
234.400009,438.800018,111.066666,36.066406
227.866669,385.200012,119.733337,36.070312
220.266663,440.800018,75.599998,36.078125
228.933334,429.599976,137.600006,36.085938
222.933334,439.866669,109.199997,36.09375
234.933334,424.133331,98.133331,36.089844
254.799988,439.199982,113.46666,36.089844
234.933334,429.733307,120.800003,36.09375
197.733322,436.666687,110.800003,36.097656
221.866669,428.666656,88.800003,36.113281
248.266663,441.333344,114.399994,36.109375
176.666656,428.266663,121.599998,36.113281
213.733337,453.866638,111.73333,36.113281
218.0,427.200012,132.399994,36.117188
220.666672,441.333344,113.066666,36.125
224.266663,456.133362,119.333336,36.128906
228.399994,441.333344,139.333328,36.132812
214.133331,429.866669,113.333328,36.132812
228.799988,479.333344,117.333336,36.136719
224.933334,427.200012,79.733337,36.136719
225.733337,441.06665,129.866669,36.136719
228.799988,435.066681,112.666664,36.140625
211.733337,456.666687,118.533333,36.144531
176.53334,430.93335,115.733337,36.15625
242.266678,439.333344,117.733337,36.148438
231.333328,437.466675,72.266663,36.15625
175.733337,436.266663,121.73333,36.160156
229.333328,423.333313,110.666664,36.160156
217.199997,437.599976,119.866669,36.171875
225.333328,440.0,110.800003,36.179688
215.599991,466.133362,125.866669,36.1875
230.533325,440.666656,79.599998,36.203125
224.0,433.066681,123.199997,36.210938
218.399994,439.333344,129.733337,36.230469
263.866669,433.600006,125.333336,36.230469
226.0,428.133301,87.600006,36.230469
208.133331,436.0,125.733337,36.226562
215.866669,437.866669,126.53334,36.230469
231.733337,433.733337,127.466667,36.234375
220.133347,482.266663,108.133331,36.230469
235.866669,434.666687,83.333328,36.238281
228.666672,437.866669,109.866669,36.238281
188.266663,431.333344,120.800003,36.25
221.466675,404.399994,109.066666,36.253906
226.666656,433.466675,140.266663,36.257812
228.933334,411.466675,114.799995,36.257812
220.93335,429.733307,152.533325,36.253906
275.866669,440.266693,113.599998,36.261719
223.333344,430.666656,119.866669,36.265625
222.133331,439.466675,143.733337,36.273438
227.866669,476.933319,122.266663,36.285156
186.53334,439.06665,111.199997,36.296875
227.733322,427.733337,90.933334,36.296875
218.0,439.733307,123.199997,36.296875
280.266663,433.466675,122.133331,36.292969
215.866669,427.333344,110.933334,36.296875
235.466675,431.600006,121.866669,36.304688
223.199997,440.133331,120.933334,36.304688
240.133347,431.733337,119.066666,36.3125
222.933334,433.333313,110.0,36.320312
263.866669,433.200012,124.266663,36.320312
223.733337,442.266663,115.600006,36.328125
248.799988,430.666656,120.266663,36.339844
232.666656,442.133331,59.200001,36.351562
173.733337,430.533325,122.133331,36.351562
272.933319,439.866669,115.600006,36.355469
229.599991,432.400024,125.733337,36.351562
223.866669,440.400024,134.133331,36.34375
227.199997,430.0,120.133331,36.359375
223.333344,427.06665,95.333336,36.363281
232.266678,434.0,132.933334,36.363281
219.06665,437.466675,124.0,36.371094
230.666672,435.733337,145.866669,36.367188
231.733337,437.733337,114.666664,36.371094
268.533325,432.0,120.400002,36.382812
188.533325,438.399994,113.866661,36.386719
210.400009,439.733307,122.533333,36.386719
228.533325,441.199982,120.133331,36.390625
179.333328,429.333344,119.333336,36.398438
232.666656,443.066681,114.266663,36.398438
218.799988,415.466644,118.533333,36.402344
216.666656,427.333344,113.73333,36.417969
171.733337,432.400024,121.333328,36.429688
217.46666,437.200012,121.866669,36.425781
270.0,436.266663,124.133331,36.425781
233.600006,427.866669,97.466667,36.433594
225.066666,433.333313,123.199997,36.433594
228.933334,437.466675,134.799988,36.4375
171.466675,433.600006,122.533333,36.441406
216.266663,435.066681,163.199997,36.441406
230.266663,401.733337,122.266663,36.449219
166.0,432.0,113.866661,36.449219
231.200012,430.0,100.400002,36.445312
219.599991,442.666656,113.199997,36.453125
217.333344,375.066681,117.333336,36.457031
232.0,432.533325,112.666664,36.457031
210.266663,454.133331,114.799995,36.457031
271.06665,433.333313,114.666664,36.46875
228.533325,408.93335,116.133339,36.464844
220.266663,432.533325,125.600006,36.46875
267.333344,438.800018,110.666664,36.46875
249.466675,434.933319,121.866669,36.492188
217.333344,425.466644,110.133331,36.5
231.733337,432.799988,122.399994,36.5
220.133347,430.800018,75.066666,36.5
220.666672,434.799988,134.0,36.503906
239.733337,439.599976,111.199997,36.507812
217.866669,434.0,129.866669,36.515625
211.466675,435.066681,109.866669,36.519531
219.866653,435.200012,120.0,36.515625
222.266678,465.733337,109.866669,36.523438
231.600006,438.133301,180.533325,36.523438
220.0,432.0,113.599998,36.527344
232.133331,435.866669,173.199997,36.527344
195.733337,434.533356,109.599998,36.535156
223.600006,476.533325,123.599998,36.535156
218.666672,434.933319,139.733337,36.539062
216.266663,435.600006,120.933334,36.546875
231.466675,439.599976,63.333336,36.558594
218.133331,434.799988,121.866669,36.558594
198.933334,435.600006,115.200005,36.5625
211.600006,435.200012,119.466667,36.558594
221.600006,420.0,103.46666,36.5625
230.133347,438.93335,132.666656,36.5625
180.533325,431.466675,112.399994,36.574219
222.666656,433.200012,117.733337,36.566406
227.46666,487.466675,116.933334,36.574219
216.399994,436.799988,168.133331,36.574219
231.600006,435.200012,118.26667,36.578125
229.199997,437.333344,114.933327,36.574219
206.666656,449.599976,118.0,36.582031
228.133331,427.733337,114.133331,36.585938
222.666656,433.066681,116.0,36.589844
222.53334,438.399994,154.133331,36.59375
231.066666,428.133301,117.066666,36.597656
215.466675,439.599976,113.199997,36.601562
232.0,434.399994,120.533333,36.601562
276.666656,437.866669,113.73333,36.613281
226.800003,434.133331,131.066666,36.621094
181.866669,435.466644,109.466667,36.621094
227.866669,434.133331,132.933334,36.625
279.466675,438.399994,113.73333,36.628906
223.733337,432.666656,119.599998,36.628906
259.200012,436.933319,113.866661,36.628906
239.733337,435.733337,122.399994,36.632812
189.06665,437.866669,114.266663,36.636719
269.200012,434.933319,119.866669,36.644531
228.266663,437.333344,114.399994,36.65625
248.0,434.799988,119.599998,36.652344
216.800003,435.466644,133.599991,36.65625
230.93335,475.733337,120.666664,36.65625
218.133331,435.466644,113.066666,36.660156
230.266663,424.266663,119.333336,36.667969
277.466675,438.266663,114.533325,36.667969
218.933334,423.066681,117.733337,36.671875
231.466675,434.399994,112.399994,36.675781
205.333328,452.400024,118.133331,36.683594
217.46666,434.399994,124.533325,36.699219
225.466675,435.466644,118.800003,36.695312
220.266663,434.266663,119.466667,36.695312
286.266663,437.866669,120.0,36.695312
230.800003,436.666687,65.599998,36.703125
221.600006,445.733337,117.466667,36.707031
228.533325,437.200012,143.199997,36.707031
222.266678,436.266663,116.0,36.710938
226.266663,425.200012,114.933327,36.714844
221.200012,435.066681,116.933334,36.722656
219.866653,471.866699,118.800003,36.730469
224.400009,437.333344,102.266663,36.738281
219.199997,435.200012,127.333336,36.742188
226.399994,437.466675,115.333336,36.746094
206.399994,444.399994,117.466667,36.75
227.333344,437.200012,104.266663,36.757812
230.400009,438.266663,150.666672,36.753906
184.400009,433.200012,112.399994,36.753906
234.799988,439.333344,85.466675,36.761719
203.600006,435.866669,114.933327,36.765625
217.46666,439.466675,118.0,36.765625
233.333344,437.599976,113.066666,36.769531
222.800003,463.866638,117.333336,36.777344
229.599991,436.799988,150.533325,36.777344
230.533325,422.93335,113.066666,36.78125
219.199997,434.266663,140.666672,36.78125
229.06665,386.799988,118.26667,36.789062
217.199997,397.06665,115.733337,36.789062
252.399994,438.399994,118.26667,36.800781
224.400009,477.200012,114.266663,36.800781
213.333344,434.666687,117.600006,36.800781
222.800003,436.0,131.600006,36.804688
221.866669,421.866699,117.733337,36.8125
217.866669,449.733307,117.066666,36.8125
225.333328,483.333313,117.333336,36.8125
232.0,492.666656,118.26667,36.816406
162.0,435.466644,119.466667,36.820312
169.466675,434.266663,118.26667,36.824219
174.666672,434.933319,119.466667,36.824219
153.599991,437.200012,119.599998,36.824219
216.800003,433.866638,116.400002,36.832031
231.866669,440.533325,121.199997,36.835938
217.866669,433.200012,156.53334,36.84375
231.066666,440.400024,173.866669,36.847656
232.53334,429.333344,83.066666,36.851562
224.266663,438.93335,65.066666,36.847656
230.93335,437.866669,89.199997,36.855469
220.400009,437.466675,114.799995,36.859375
218.399994,434.0,116.26667,36.867188
230.666672,439.866669,117.733337,36.867188
217.733322,433.866638,117.066666,36.871094
228.533325,436.799988,117.333336,36.871094
227.866669,436.666687,109.333336,36.878906
218.266663,436.133362,113.73333,36.878906
232.53334,438.533325,117.733337,36.882812
217.46666,430.266693,112.799995,36.894531
217.866669,434.399994,118.400002,36.902344
284.93335,435.466644,116.400002,36.90625
205.866669,441.600006,118.666672,36.90625
229.466675,484.666687,116.800003,36.90625
229.866653,423.466675,120.133331,36.910156
219.06665,431.333344,168.133331,36.921875
228.399994,439.866669,138.0,36.921875
221.866669,433.333313,117.866669,36.925781
215.466675,438.666656,129.066666,36.925781
232.666656,434.399994,118.0,36.9375
220.400009,431.06665,112.666664,36.949219
230.800003,433.466675,118.400002,36.949219
229.06665,439.333344,117.066666,36.960938
224.799988,432.799988,117.866669,36.964844
214.533325,448.93335,115.066673,36.96875
224.933334,423.866638,102.266663,36.96875
217.199997,434.399994,113.866661,36.96875
216.0,438.666656,120.800003,36.96875
218.266663,428.800018,72.800003,36.96875
228.666672,440.266693,118.26667,36.96875
233.866669,436.399994,65.066666,36.972656
226.266663,436.799988,115.333336,36.972656
227.199997,381.199982,117.333336,36.984375
220.266663,438.399994,138.933334,36.992188
167.733322,430.666656,116.26667,36.992188
230.533325,390.800018,118.533333,36.996094
219.06665,431.199982,118.0,36.992188
226.666656,434.266663,73.599998,36.996094
227.333344,478.93335,118.533333,37.007812
222.0,435.866669,111.599998,37.019531
227.333344,423.466675,119.599998,37.019531
274.133331,434.0,114.133331,37.015625
241.733337,434.533356,121.066666,37.019531
224.799988,435.066681,82.533333,37.019531
177.333344,438.533325,118.533333,37.023438
220.93335,430.666656,117.866669,37.03125
223.333344,438.533325,141.333328,37.027344
224.0,431.733337,115.866669,37.035156
220.0,439.733307,119.333336,37.039062
228.266663,381.199982,116.800003,37.039062
184.666672,440.0,116.933334,37.046875
224.266663,430.666656,152.399994,37.054688
214.133331,453.066681,113.46666,37.050781
223.199997,432.0,116.133339,37.054688
224.266663,438.800018,126.26667,37.066406
193.066681,432.799988,120.666664,37.074219
222.53334,435.200012,134.399994,37.078125
217.066666,454.933319,121.599998,37.078125
239.333328,436.266663,112.133331,37.082031
225.466675,436.933319,126.26667,37.082031
226.399994,381.466675,114.0,37.089844
220.133347,439.199982,119.866669,37.085938
222.133331,432.266663,126.400002,37.097656
249.06665,440.133331,120.266663,37.101562
223.066681,432.0,74.26667,37.105469
224.799988,446.133362,116.53334,37.109375
228.933334,430.800018,112.266663,37.109375
220.93335,424.266663,117.466667,37.109375
227.866669,431.06665,145.200012,37.117188
219.06665,437.733337,113.866661,37.125
222.53334,437.200012,117.866669,37.144531
222.933334,438.266663,125.866669,37.144531
222.800003,431.733337,120.533333,37.144531
220.400009,464.266663,112.666664,37.144531
224.400009,432.533325,133.733337,37.15625
271.466675,435.333313,112.399994,37.15625
232.0,425.333313,124.933327,37.152344
220.266663,432.666656,114.666664,37.152344
214.0,441.466675,122.533333,37.160156
228.666672,434.933319,71.73333,37.15625
221.866669,437.866669,118.133331,37.160156
228.266663,431.866699,117.733337,37.167969
225.066666,439.333344,131.199997,37.179688
222.800003,429.733307,130.800003,37.179688
226.133331,490.800018,116.800003,37.183594
221.066666,428.93335,130.666672,37.183594
226.666656,441.733337,120.933334,37.1875
224.666672,428.93335,119.066666,37.191406
212.133331,439.199982,112.666664,37.195312
232.133331,431.733337,122.533333,37.203125
222.53334,439.599976,123.066666,37.226562
228.933334,431.199982,122.133331,37.238281
169.866653,435.866669,110.666664,37.238281
235.200012,434.799988,123.866661,37.246094
254.0,440.266693,112.399994,37.253906
224.266663,431.199982,122.933334,37.25
225.333328,435.466644,110.666664,37.257812
222.133331,438.533325,77.466667,37.253906
216.800003,434.399994,107.466667,37.257812
232.800003,437.599976,139.199997,37.257812
219.599991,421.466675,111.866669,37.25
202.666656,440.800018,123.333328,37.257812
230.133347,434.0,109.466667,37.257812
206.399994,437.733337,120.400002,37.257812
229.866653,430.800018,145.600006,37.261719
257.466675,439.733307,118.133331,37.265625
217.333344,429.466675,113.199997,37.265625
231.866669,436.399994,89.866669,37.277344
211.333328,445.733337,111.199997,37.289062
223.733337,438.666656,117.600006,37.292969
178.533325,431.600006,109.733337,37.304688
230.400009,441.06665,124.799995,37.316406
220.0,420.93335,87.333336,37.3125
226.800003,395.066681,116.26667,37.308594
229.866653,431.600006,116.133339,37.308594
218.266663,440.266693,131.199997,37.308594
230.266663,430.0,148.53334,37.3125
219.06665,439.599976,126.53334,37.308594
186.133331,427.333344,116.133339,37.324219
230.93335,442.0,124.799995,37.320312
205.066666,453.866638,122.133331,37.324219
225.866669,422.799988,110.933334,37.320312
288.666656,432.133331,122.399994,37.328125
216.0,433.066681,109.866669,37.335938
231.866669,438.399994,120.266663,37.339844
217.066666,430.800018,110.266663,37.339844
220.800003,434.666687,121.73333,37.339844
260.266663,434.133331,111.333328,37.347656
219.866653,440.93335,121.466667,37.355469
232.266678,451.06665,116.666672,37.355469
175.333328,440.0,120.933334,37.363281
226.800003,441.600006,115.866669,37.363281
221.066666,439.466675,157.466675,37.367188
231.466675,433.466675,124.0,37.359375
223.46666,440.0,114.266663,37.359375
226.266663,386.533325,124.399994,37.367188
223.333344,436.0,65.466667,37.371094
222.53334,434.133331,125.600006,37.386719
222.800003,439.333344,119.466667,37.394531
226.800003,434.799988,126.0,37.402344
220.0,392.666656,110.266663,37.40625
227.333344,426.533325,121.599998,37.402344
207.333344,454.933319,109.466667,37.402344
224.266663,438.666656,169.333328,37.402344
226.666656,428.0,116.666672,37.40625
203.600006,461.333344,114.533325,37.410156
222.666656,413.733337,113.599998,37.414062
225.599991,440.400024,126.933334,37.410156
223.199997,427.733337,120.933334,37.410156
280.93335,441.333344,111.599998,37.421875
225.333328,427.733337,118.400002,37.421875
225.200012,437.333344,122.799995,37.421875
223.199997,428.666656,114.933327,37.425781
226.0,442.666656,117.866669,37.425781
224.266663,414.666687,106.133339,37.4375
225.066666,439.466675,116.666672,37.445312
224.799988,371.466675,117.866669,37.445312
222.399994,440.133331,114.666664,37.449219
228.533325,429.199982,142.666656,37.449219
223.46666,429.733307,91.333328,37.460938
227.600006,428.533325,124.533325,37.464844
270.400024,438.666656,110.0,37.464844
222.933334,484.266663,122.666664,37.464844
190.800003,439.199982,111.199997,37.46875
244.933334,434.799988,126.26667,37.480469
221.733337,434.533356,104.266663,37.480469
230.266663,412.799988,126.53334,37.484375
218.533325,490.400024,108.666672,37.484375
225.333328,443.733337,125.200005,37.484375
243.866669,428.666656,110.133331,37.488281
220.266663,438.399994,87.466667,37.5
225.333328,414.266663,112.133331,37.507812
226.133331,477.200012,116.666672,37.511719
214.933334,431.06665,120.266663,37.511719
229.466675,429.466675,120.800003,37.511719
211.200012,454.266663,117.866669,37.511719
224.533325,439.466675,113.066666,37.511719
224.400009,430.133331,171.066666,37.515625
218.666672,439.06665,113.199997,37.515625
226.399994,431.600006,138.933334,37.519531
224.400009,403.600006,108.933334,37.523438
220.266663,436.399994,124.799995,37.523438
220.266663,435.466644,109.733337,37.527344
232.0,441.600006,90.400002,37.539062
216.666656,414.533356,113.066666,37.539062
276.399994,441.06665,117.600006,37.542969
267.333344,430.266693,114.399994,37.542969
216.266663,438.93335,115.866669,37.542969
231.733337,390.400024,122.133331,37.554688
214.933334,428.800018,108.933334,37.558594
224.0,458.666656,119.466667,37.574219
225.733337,442.133331,65.466667,37.582031
220.93335,429.466675,136.800003,37.582031
226.933319,436.799988,121.333328,37.582031
201.733337,433.200012,126.800003,37.582031
216.266663,435.333313,91.73333,37.585938
231.466675,390.0,125.333336,37.589844
211.733337,470.533325,112.933334,37.585938
236.0,434.266663,126.800003,37.59375
231.466675,432.93335,110.933334,37.597656
215.866669,437.333344,119.199997,37.589844
233.46666,430.0,121.466667,37.601562
228.533325,406.0,120.666664,37.609375
217.733322,426.399994,118.400002,37.613281
217.600006,455.333313,114.933327,37.609375
221.733337,430.93335,76.133331,37.605469
214.533325,438.266663,113.73333,37.613281
240.266663,431.733337,126.933334,37.609375
217.600006,433.866638,118.26667,37.617188
228.133331,436.799988,146.0,37.617188
229.199997,438.800018,108.400002,37.636719
219.599991,437.599976,124.0,37.632812
220.93335,429.06665,113.866661,37.632812
220.666672,473.066681,117.866669,37.636719
273.600006,428.666656,111.466667,37.640625
222.666656,439.733307,122.0,37.640625
225.066666,377.06665,120.933334,37.652344
219.06665,438.266663,112.933334,37.652344
226.800003,428.133301,137.866669,37.652344
207.333344,452.0,111.73333,37.652344
225.866669,431.733337,125.333336,37.652344
223.066681,415.733337,110.133331,37.660156
227.866669,433.866638,112.0,37.667969
205.200012,435.466644,107.733337,37.667969
230.533325,438.266663,163.600006,37.667969
252.399994,428.533325,113.066666,37.667969
250.533325,436.666687,121.866669,37.671875
230.400009,417.733337,109.066666,37.675781
217.866669,435.066681,113.599998,37.683594
232.133331,430.266693,147.066666,37.6875
228.266663,440.0,143.199997,37.683594
220.93335,481.199982,122.799995,37.691406
218.266663,439.733307,110.933334,37.691406
220.533325,432.133331,127.333336,37.695312
232.666656,436.399994,109.733337,37.695312
232.800003,436.533325,125.333336,37.695312
216.666656,431.466675,135.866669,37.710938
227.46666,426.666687,124.266663,37.714844
229.733337,436.399994,115.866669,37.722656
219.199997,435.333313,152.666656,37.730469
227.066666,431.866699,97.466667,37.726562
222.133331,439.06665,117.600006,37.730469
220.0,428.133301,117.333336,37.730469
221.733337,438.800018,112.666664,37.730469
229.06665,431.333344,125.333336,37.738281
225.866669,436.0,108.800003,37.742188
226.133331,430.0,133.733337,37.742188
222.0,454.799988,110.266663,37.742188
180.133347,433.866638,127.333336,37.742188
223.066681,433.866638,126.400002,37.746094
224.799988,430.93335,123.73333,37.757812
227.600006,436.933319,109.733337,37.765625
220.533325,434.666687,150.399994,37.761719
226.266663,431.199982,109.733337,37.765625
232.133331,439.466675,91.066666,37.769531
219.866653,430.400024,113.599998,37.78125
185.333328,438.533325,120.533333,37.78125
227.199997,414.266663,116.800003,37.777344
190.93335,436.0,118.666672,37.785156
232.0,450.533325,117.866669,37.78125
217.866669,436.399994,124.0,37.785156
226.53334,431.600006,121.599998,37.78125
242.53334,440.0,115.600006,37.789062
219.866653,432.799988,120.666664,37.796875
223.066681,441.06665,78.26667,37.800781
226.933319,432.93335,125.466675,37.8125
164.0,435.466644,109.733337,37.816406
230.93335,435.066681,141.866669,37.8125
243.333344,433.466675,110.800003,37.820312
224.533325,420.93335,121.466667,37.820312
230.266663,428.800018,113.066666,37.824219
218.533325,434.399994,123.46666,37.824219
224.0,382.799988,112.933334,37.824219
223.199997,437.866669,115.066673,37.828125
219.333328,430.0,114.933327,37.835938
227.333344,438.93335,119.466667,37.835938
219.866653,428.666656,165.466675,37.835938
227.066666,383.866638,113.73333,37.835938
220.93335,452.533325,119.466667,37.839844
216.53334,435.466644,128.266663,37.84375
232.399994,431.733337,124.666664,37.84375
226.133331,451.866699,110.533333,37.851562
220.400009,430.400024,124.266663,37.863281
225.733337,396.533325,111.066666,37.871094
222.53334,434.666687,120.0,37.867188
221.333328,474.0,113.066666,37.875
229.733337,434.799988,167.866669,37.871094
194.933334,431.733337,112.799995,37.875
228.266663,437.333344,126.400002,37.882812
213.866669,452.400024,118.933334,37.890625
219.333328,435.066681,119.866669,37.890625
228.399994,401.199982,119.599998,37.890625
221.466675,436.399994,112.133331,37.890625
223.199997,426.933319,88.400002,37.898438
223.866669,437.866669,115.866669,37.90625
223.733337,426.0,119.466667,37.90625
222.666656,435.200012,109.599998,37.902344
223.866669,436.666687,85.333336,37.910156
242.133331,434.933319,111.866669,37.914062
225.866669,432.533325,143.733337,37.925781
223.733337,420.533325,113.46666,37.925781
218.799988,439.733307,118.26667,37.925781
224.400009,436.0,117.466667,37.925781
221.200012,427.200012,92.133331,37.929688
208.533325,438.666656,117.200005,37.933594
237.199997,436.666687,116.0,37.933594
219.866653,431.06665,145.466675,37.9375
224.0,423.866638,116.800003,37.9375
213.46666,433.200012,120.533333,37.9375
209.866653,435.333313,114.533325,37.9375
230.533325,436.266663,102.533333,37.945312
202.666656,439.599976,110.400002,37.949219
227.333344,433.733337,123.866661,37.945312
220.266663,433.200012,115.066673,37.953125
218.266663,432.93335,130.133331,37.957031
226.0,427.599976,86.133339,37.960938
220.133347,423.200012,122.533333,37.972656
226.0,484.266663,115.333336,37.96875
274.799988,434.933319,122.666664,37.972656
251.733337,432.266663,115.466675,37.984375
228.133331,435.066681,120.533333,37.984375
220.93335,432.533325,114.533325,37.984375
216.266663,432.666656,119.733337,37.984375
229.466675,434.799988,118.400002,37.992188
214.266663,421.333344,116.0,37.996094
197.46666,434.133331,120.533333,37.992188
231.200012,436.666687,117.866669,38.0
217.333344,431.866699,116.26667,38.003906
231.200012,436.799988,131.46666,38.003906
220.533325,416.0,114.666664,38.007812
208.133331,463.733337,116.800003,38.011719
260.266663,434.533356,120.800003,38.015625
216.666656,433.733337,113.866661,38.019531
228.666672,434.266663,121.466667,38.011719
223.066681,434.133331,133.066666,38.023438
221.866669,418.533325,119.866669,38.023438
210.800003,432.93335,113.73333,38.027344
226.399994,433.866638,119.466667,38.027344
228.933334,436.0,113.333328,38.027344
220.133347,434.0,117.466667,38.03125
226.800003,427.733337,82.666664,38.035156
214.0,470.800018,119.466667,38.042969
233.600006,432.799988,114.0,38.039062
229.866653,434.266663,122.266663,38.042969
217.866669,432.400024,115.733337,38.046875
227.866669,436.133362,120.800003,38.050781
233.066681,462.0,118.666672,38.0625
219.733337,422.0,91.333328,38.066406
227.733322,435.600006,130.933334,38.070312
220.400009,433.200012,108.26667,38.066406
216.53334,389.599976,117.333336,38.074219
228.0,435.733337,117.466667,38.074219
217.600006,432.533325,118.800003,38.078125
213.199997,454.133331,114.933327,38.078125
227.866669,436.266663,118.800003,38.082031
204.533325,432.93335,112.933334,38.089844
227.600006,434.399994,161.200012,38.09375
216.133331,434.0,116.0,38.09375
203.866669,445.733337,120.800003,38.09375
226.666656,425.866669,82.399994,38.097656
219.599991,432.0,124.533325,38.101562
198.799988,436.133362,117.866669,38.105469
223.066681,432.799988,118.400002,38.109375
248.399994,434.933319,118.133331,38.105469
226.666656,435.200012,81.599998,38.109375
189.866653,434.533356,118.800003,38.113281
256.0,432.400024,120.0,38.125
230.666672,426.399994,84.266663,38.132812
221.866669,433.066681,115.333336,38.136719
223.333344,435.866669,130.933334,38.132812
235.733337,430.666656,116.400002,38.136719
228.799988,437.200012,117.466667,38.136719
221.200012,431.866699,115.466675,38.136719
228.133331,437.06665,115.733337,38.140625
224.133331,437.466675,116.133339,38.136719
221.733337,433.466675,93.599998,38.144531
222.53334,433.200012,118.133331,38.144531
202.666656,432.799988,113.73333,38.152344
219.199997,430.133331,95.733337,38.152344
226.0,433.333313,115.600006,38.152344
220.266663,433.733337,119.599998,38.15625
221.466675,423.200012,115.466675,38.15625
228.533325,436.133362,121.73333,38.160156
215.733337,429.866669,132.0,38.160156
226.399994,437.466675,120.133331,38.164062
219.733337,431.333344,115.200005,38.167969
257.733337,436.399994,117.066666,38.167969
240.93335,433.066681,118.26667,38.171875
257.866669,434.399994,117.466667,38.179688
240.133347,433.200012,118.26667,38.1875
228.799988,438.266663,120.0,38.1875
215.599991,430.0,117.733337,38.1875
228.666672,436.0,130.0,38.1875
204.666672,426.799988,117.200005,38.1875
215.599991,390.533325,116.26667,38.199219
230.666672,431.733337,163.066681,38.199219
215.866669,430.666656,135.466675,38.195312
227.866669,436.399994,122.933334,38.195312
228.799988,433.866638,112.799995,38.199219
217.066666,434.533356,118.0,38.207031
230.0,432.666656,131.46666,38.203125
221.333328,425.866669,101.066666,38.207031
219.466675,443.333313,114.933327,38.207031
229.06665,482.133331,120.666664,38.210938
253.333344,430.666656,117.466667,38.214844
215.333328,442.266663,117.600006,38.214844
231.466675,467.333344,118.133331,38.21875
256.799988,435.200012,115.600006,38.226562
226.666656,431.600006,121.066666,38.226562
218.933334,433.600006,116.400002,38.230469
224.533325,430.400024,119.333336,38.246094
219.866653,435.066681,140.533325,38.238281
222.53334,430.666656,161.066666,38.238281
226.399994,432.266663,114.0,38.242188
217.600006,430.133331,149.466675,38.25
226.0,434.799988,115.600006,38.242188
218.799988,430.533325,138.53334,38.25
227.866669,433.600006,134.0,38.253906
229.333328,433.200012,154.933334,38.261719
216.399994,430.93335,130.533325,38.253906
230.533325,436.133362,123.46666,38.253906
214.666672,430.666656,113.46666,38.257812
221.733337,433.066681,124.266663,38.257812
267.199982,432.133331,112.266663,38.257812
213.600006,458.266663,123.73333,38.261719
223.333344,412.133331,110.533333,38.261719
203.199997,434.666687,120.533333,38.261719
225.599991,431.466675,115.600006,38.265625
220.400009,475.600006,120.266663,38.273438
247.866669,432.799988,117.733337,38.269531
231.200012,437.06665,124.266663,38.273438
217.866669,430.800018,115.466675,38.273438
229.733337,460.400024,119.333336,38.273438
219.466675,429.599976,112.799995,38.277344
222.399994,437.333344,121.333328,38.285156
223.733337,428.800018,117.066666,38.285156
218.933334,437.733337,118.133331,38.292969
224.0,429.466675,120.266663,38.300781
221.466675,437.866669,118.400002,38.304688
223.333344,428.399994,123.46666,38.300781
219.199997,436.666687,113.199997,38.300781
224.266663,429.466675,125.066673,38.304688
227.333344,438.800018,117.866669,38.3125
216.53334,427.599976,120.400002,38.3125
227.066666,436.0,114.399994,38.308594
217.866669,431.733337,124.133331,38.308594
214.666672,433.866638,112.533333,38.308594
228.799988,433.200012,124.799995,38.3125
213.46666,431.06665,113.46666,38.316406
231.066666,436.933319,125.733337,38.316406
221.733337,434.666687,110.666664,38.316406
221.733337,433.466675,127.200005,38.320312
220.533325,430.133331,114.0,38.320312
222.266678,436.666687,123.46666,38.324219
224.666672,434.0,113.599998,38.324219
218.0,433.600006,124.0,38.324219
225.866669,430.800018,115.200005,38.328125
217.600006,436.399994,122.799995,38.332031
213.600006,431.06665,112.0,38.332031
228.799988,437.06665,125.466675,38.332031
215.200012,427.466675,114.666664,38.335938
228.266663,440.0,119.466667,38.335938
224.400009,429.199982,115.866669,38.339844
218.799988,437.733337,119.733337,38.335938
225.733337,427.466675,120.133331,38.34375
218.933334,438.0,116.0,38.347656
226.53334,428.93335,119.066666,38.351562
218.266663,437.866669,115.866669,38.351562
227.46666,426.933319,122.133331,38.351562
214.400009,444.133331,112.799995,38.351562
217.066666,425.066681,117.733337,38.351562
225.200012,439.333344,116.933334,38.355469
217.600006,426.799988,122.133331,38.359375
224.799988,437.200012,113.73333,38.359375
221.200012,426.799988,120.133331,38.363281
222.933334,438.266663,115.200005,38.363281
225.333328,429.06665,121.73333,38.363281
220.0,436.0,115.600006,38.363281
230.0,428.266663,125.466675,38.367188
216.133331,433.733337,110.0,38.367188
230.533325,433.733337,127.466667,38.367188
215.333328,431.06665,110.266663,38.371094
218.0,428.800018,124.399994,38.375
226.0,436.533325,112.399994,38.375
219.333328,432.799988,124.533325,38.378906
227.866669,432.266663,112.0,38.375
229.466675,433.466675,124.933327,38.382812
216.933319,431.733337,114.666664,38.382812
224.0,435.600006,125.866669,38.386719
221.200012,427.466675,114.266663,38.390625
224.799988,437.466675,124.533325,38.386719
220.266663,427.733337,114.0,38.390625
223.066681,438.399994,118.933334,38.390625
222.0,426.266663,119.599998,38.394531
216.800003,437.733337,119.466667,38.398438
228.399994,427.06665,120.0,38.398438
215.599991,437.866669,116.0,38.398438
231.866669,426.933319,124.533325,38.398438
225.866669,440.0,120.266663,38.40625
220.800003,425.466644,118.666672,38.40625
224.933334,439.599976,116.26667,38.40625
221.066666,427.599976,124.133331,38.410156
225.466675,440.400024,119.066666,38.414062
219.333328,426.0,115.866669,38.414062
228.533325,439.06665,119.466667,38.410156
216.800003,427.733337,122.0,38.414062
217.333344,438.133301,117.333336,38.414062
225.733337,427.866669,123.199997,38.414062
213.866669,436.799988,111.333328,38.417969
229.866653,433.066681,128.133331,38.417969
221.866669,438.800018,113.866661,38.417969
224.666672,428.93335,126.666672,38.417969
223.199997,434.933319,110.533333,38.421875
218.0,434.799988,128.53334,38.425781
218.666672,435.066681,113.599998,38.433594
225.066666,434.133331,123.866661,38.433594
222.266678,430.93335,110.533333,38.433594
221.866669,436.933319,125.600006,38.429688
214.266663,432.93335,109.599998,38.429688
229.733337,435.866669,128.266663,38.433594
214.0,429.866669,111.466667,38.433594
229.06665,439.06665,124.666664,38.433594
224.266663,432.266663,110.533333,38.4375
218.799988,436.799988,127.466667,38.4375
225.866669,428.0,113.73333,38.4375
220.800003,437.733337,119.066666,38.4375
224.799988,430.133331,112.666664,38.4375
219.466675,436.399994,120.533333,38.441406
224.799988,426.533325,121.066666,38.441406
220.800003,439.199982,114.533325,38.445312
215.333328,429.866669,112.266663,38.449219
228.933334,437.866669,121.599998,38.449219
217.600006,426.799988,118.533333,38.449219
226.0,438.666656,116.800003,38.449219
218.799988,426.933319,114.266663,38.449219
224.0,438.666656,117.466667,38.453125
218.666672,425.600006,122.266663,38.453125
224.0,438.800018,114.933327,38.453125
229.866653,427.866669,119.333336,38.453125
215.333328,436.533325,114.533325,38.453125
231.600006,427.466675,126.800003,38.453125
213.733337,437.06665,109.199997,38.457031
217.199997,426.399994,123.46666,38.457031
225.466675,438.93335,112.0,38.460938
220.266663,429.199982,127.200005,38.460938
223.600006,435.866669,110.133331,38.460938
220.800003,426.799988,124.533325,38.460938
221.866669,438.133301,112.533333,38.460938
220.400009,428.399994,126.53334,38.460938
224.799988,436.399994,113.46666,38.460938
232.266678,427.733337,123.866661,38.464844
214.666672,436.666687,112.266663,38.46875
228.399994,432.266663,128.133331,38.464844
216.933319,433.466675,110.0,38.46875
227.46666,430.133331,127.066666,38.46875
217.46666,434.533356,110.666664,38.46875
226.933319,433.866638,127.733337,38.472656
217.733322,431.06665,110.0,38.472656
221.200012,433.600006,124.933327,38.472656
222.266678,431.06665,113.599998,38.472656
217.866669,436.266663,120.666664,38.476562
226.133331,427.733337,119.199997,38.476562
230.133347,436.933319,126.26667,38.480469
215.866669,425.066681,114.666664,38.476562
227.333344,439.06665,119.333336,38.480469
218.933334,426.799988,120.933334,38.480469
214.933334,436.0,118.0,38.484375
231.333328,426.799988,121.73333,38.484375
212.666656,436.399994,109.733337,38.484375
230.133347,430.800018,130.666672,38.484375
225.599991,438.133301,112.933334,38.488281
216.933319,428.666656,126.0,38.488281
225.866669,436.399994,111.599998,38.488281
217.46666,432.400024,125.333336,38.488281
214.666672,434.666687,110.933334,38.492188
230.133347,434.399994,128.133331,38.492188
215.333328,432.666656,110.800003,38.492188
229.06665,435.733337,125.466675,38.492188
221.066666,432.93335,108.26667,38.5
222.53334,434.0,127.866669,38.5
220.800003,429.06665,112.799995,38.5
223.199997,436.933319,119.733337,38.5
225.066666,430.666656,113.333328,38.5
218.266663,435.200012,121.599998,38.503906
227.066666,429.06665,118.133331,38.503906
216.666656,437.06665,115.200005,38.5
215.866669,428.266663,114.133331,38.503906
226.933319,437.200012,119.333336,38.507812
218.133331,428.133301,120.133331,38.507812
227.066666,438.133301,114.399994,38.507812
229.599991,428.666656,122.933334,38.507812
214.666672,435.600006,113.066666,38.507812
230.800003,431.199982,126.400002,38.511719
214.533325,433.733337,110.666664,38.515625
221.200012,428.800018,126.133339,38.511719
222.0,436.0,109.866669,38.515625
221.066666,431.199982,130.133331,38.519531
220.93335,433.333313,110.133331,38.519531
218.399994,429.06665,125.600006,38.519531
224.533325,435.866669,111.599998,38.515625
216.133331,431.600006,126.133339,38.519531
225.733337,433.066681,112.0,38.519531
229.733337,434.266663,126.800003,38.519531
215.866669,431.600006,109.599998,38.519531
228.799988,435.200012,124.0,38.519531
217.333344,428.93335,114.133331,38.519531
216.0,434.533356,123.333328,38.519531
229.06665,430.0,120.933334,38.523438
214.799988,435.066681,114.799995,38.527344
229.599991,430.93335,125.333336,38.527344
226.53334,437.333344,117.866669,38.527344
218.133331,427.733337,122.266663,38.527344
226.0,436.399994,115.466675,38.527344
218.799988,430.533325,122.799995,38.527344
212.399994,434.399994,110.800003,38.527344
231.733337,432.0,127.733337,38.527344
213.46666,432.666656,109.599998,38.53125
229.06665,435.200012,123.866661,38.53125
220.533325,434.133331,112.266663,38.527344
220.533325,432.533325,125.200005,38.527344
220.400009,431.733337,112.266663,38.53125
223.600006,440.533325,122.799995,38.53125
226.53334,433.600006,115.466675,38.535156
217.333344,433.733337,120.0,38.539062
225.866669,430.800018,118.666672,38.539062
215.466675,434.666687,117.066666,38.535156
217.199997,431.600006,113.599998,38.535156
226.133331,434.933319,123.199997,38.535156
219.333328,430.0,118.533333,38.535156
225.466675,436.266663,120.800003,38.539062
219.866653,430.93335,115.466675,38.539062
224.666672,434.666687,124.266663,38.539062
221.333328,430.666656,115.600006,38.539062
226.0,435.733337,121.066666,38.539062
229.06665,433.066681,116.666672,38.539062
217.733322,433.466675,118.933334,38.539062
227.866669,432.133331,120.933334,38.542969
214.799988,434.0,116.0,38.542969
222.399994,431.333344,118.666672,38.542969
220.800003,435.066681,117.866669,38.539062
223.066681,431.199982,122.933334,38.546875
214.400009,434.933319,115.600006,38.546875
215.866669,431.733337,118.133331,38.550781
227.600006,434.266663,118.400002,38.550781
218.933334,430.266693,120.666664,38.550781
226.0,436.133362,116.26667,38.546875
222.666656,431.600006,119.599998,38.550781
222.266678,435.466644,117.333336,38.550781
222.666656,431.199982,123.73333,38.546875
219.866653,433.466675,117.333336,38.550781
228.133331,431.466675,124.666664,38.550781
214.933334,433.200012,112.533333,38.550781
228.399994,431.733337,126.26667,38.550781
214.666672,431.600006,113.199997,38.550781
218.933334,430.666656,122.133331,38.550781
225.333328,434.933319,115.066673,38.550781
219.333328,430.666656,122.799995,38.554688
227.600006,433.866638,116.400002,38.554688
224.799988,431.06665,120.400002,38.554688
221.866669,432.93335,116.0,38.550781
223.066681,432.133331,119.866669,38.550781
223.066681,432.0,118.933334,38.554688
229.199997,433.066681,123.599998,38.558594
214.533325,430.533325,113.73333,38.554688
229.06665,434.133331,121.73333,38.558594
215.866669,430.800018,116.800003,38.558594
217.733322,431.06665,121.866669,38.558594
228.933334,432.93335,119.599998,38.558594
216.800003,433.866638,115.600006,38.5625
227.46666,432.666656,123.866661,38.558594
228.0,433.866638,119.466667,38.558594
218.933334,432.0,118.666672,38.5625
224.666672,434.933319,117.600006,38.558594
218.799988,430.800018,121.73333,38.558594
222.933334,433.866638,118.0,38.558594
222.266678,432.93335,122.0,38.5625
221.600006,432.400024,118.0,38.5625
223.199997,432.133331,118.533333,38.5625
214.799988,432.799988,114.0,38.5625
225.733337,432.533325,124.0,38.5625
218.266663,431.06665,114.666664,38.5625
226.666656,431.600006,121.333328,38.5625
227.199997,434.0,117.466667,38.5625
216.53334,429.733307,118.400002,38.5625
229.466675,434.266663,118.933334,38.566406
216.0,430.666656,120.0,38.566406
215.333328,432.533325,119.066666,38.570312
224.799988,431.866699,119.066666,38.566406
217.733322,433.466675,119.866669,38.566406
227.733322,433.200012,118.666672,38.566406
223.46666,434.133331,119.466667,38.566406
219.599991,432.533325,118.26667,38.566406
224.0,434.533356,121.333328,38.566406
221.200012,432.533325,118.933334,38.570312
226.399994,434.399994,123.46666,38.570312
216.0,432.0,113.73333,38.570312
227.333344,434.533356,123.333328,38.570312
214.799988,432.266663,114.533325,38.570312
222.53334,434.133331,120.133331,38.570312
221.600006,432.266663,117.733337,38.570312
223.733337,434.266663,121.73333,38.570312
220.533325,431.600006,117.333336,38.570312
215.866669,433.466675,119.599998,38.570312
226.133331,432.799988,118.26667,38.574219
213.866669,434.933319,119.733337,38.570312
226.800003,432.400024,116.0,38.574219
219.466675,434.933319,117.600006,38.574219
224.133331,431.866699,119.866669,38.574219
219.333328,433.066681,120.133331,38.574219
226.0,432.533325,116.53334,38.574219
229.06665,436.399994,121.199997,38.574219
215.866669,430.0,115.466675,38.574219
226.800003,433.200012,119.599998,38.578125
218.133331,431.866699,115.866669,38.578125
214.666672,432.0,116.133339,38.582031
226.933319,432.533325,123.066666,38.578125
217.46666,430.93335,116.0,38.578125
225.466675,435.733337,119.733337,38.578125
227.600006,432.666656,120.133331,38.582031
216.266663,432.93335,118.933334,38.582031
228.533325,432.666656,119.733337,38.582031
216.399994,433.866638,119.066666,38.582031
216.0,430.800018,119.599998,38.582031
228.933334,435.733337,120.400002,38.585938
217.066666,430.666656,118.800003,38.582031
228.399994,434.533356,118.800003,38.582031
220.266663,430.533325,118.400002,38.582031
224.0,435.733337,118.26667,38.582031
221.200012,430.666656,118.666672,38.582031
222.53334,433.733337,116.933334,38.582031
227.733322,432.0,119.599998,38.582031
214.533325,435.200012,115.600006,38.582031
228.533325,431.06665,120.666664,38.582031
214.799988,432.400024,116.400002,38.585938
215.733337,431.06665,118.533333,38.585938
224.133331,434.133331,118.133331,38.589844
219.466675,431.06665,119.866669,38.589844
224.400009,432.533325,118.26667,38.589844
221.866669,431.06665,120.0,38.589844
222.666656,432.133331,117.733337,38.589844
225.066666,433.066681,119.199997,38.589844
220.666672,430.666656,122.0,38.589844
229.06665,431.866699,122.799995,38.589844
212.666656,431.333344,114.666664,38.589844
229.333328,436.133362,123.199997,38.589844
216.266663,428.266663,119.599998,38.589844
215.866669,434.666687,121.333328,38.589844
228.0,430.93335,120.933334,38.589844
216.800003,435.466644,119.599998,38.589844
228.799988,431.333344,120.800003,38.589844
228.533325,436.933319,120.400002,38.589844
217.066666,429.466675,120.0,38.589844
227.46666,436.133362,118.400002,38.589844
220.133347,429.599976,120.400002,38.589844
225.599991,437.733337,120.400002,38.59375
218.266663,428.666656,118.400002,38.59375
222.399994,434.799988,116.26667,38.59375
222.933334,431.466675,121.599998,38.597656
214.933334,434.933319,114.0,38.59375
228.933334,430.800018,126.400002,38.59375
215.733337,432.133331,113.199997,38.59375
228.133331,433.466675,126.0,38.59375
226.399994,432.533325,117.200005,38.59375
217.46666,432.799988,121.333328,38.59375
218.666672,432.533325,115.600006,38.59375
227.600006,433.200012,123.73333,38.59375
226.399994,436.399994,117.066666,38.59375
216.53334,431.199982,121.466667,38.597656
225.066666,432.133331,118.400002,38.597656
216.399994,434.133331,119.866669,38.59375
213.199997,431.466675,114.399994,38.597656
227.600006,436.133362,124.399994,38.597656
217.066666,428.399994,116.133339,38.597656
223.199997,434.799988,123.599998,38.597656
216.800003,430.93335,114.133331,38.59375
226.399994,435.333313,122.533333,38.597656
218.933334,428.399994,118.533333,38.597656
224.0,437.866669,124.266663,38.597656
228.133331,429.733307,118.933334,38.601562
217.199997,437.06665,120.266663,38.601562
227.866669,429.06665,120.400002,38.605469
215.599991,435.733337,116.53334,38.605469
215.333328,426.533325,118.666672,38.605469
226.800003,438.666656,117.733337,38.605469
217.066666,427.733337,122.0,38.601562
225.066666,434.799988,114.533325,38.601562
230.133347,429.199982,126.0,38.605469
214.133331,432.266663,111.599998,38.605469
230.400009,440.400024,127.466667,38.605469
214.266663,428.399994,112.266663,38.605469
218.799988,431.866699,124.799995,38.601562
224.666672,431.600006,114.0,38.605469
217.199997,435.200012,122.933334,38.605469
227.066666,428.133301,118.666672,38.605469
226.53334,437.06665,124.399994,38.609375
213.333344,427.733337,117.066666,38.609375
227.866669,438.399994,119.199997,38.609375
215.866669,427.599976,121.466667,38.609375
215.333328,437.733337,118.533333,38.605469
222.800003,427.866669,121.599998,38.609375
215.866669,434.799988,114.0,38.609375
226.800003,432.666656,127.333336,38.609375
221.866669,436.266663,114.133331,38.605469
221.066666,430.133331,125.200005,38.605469
225.733337,431.466675,111.866669,38.609375
219.733337,435.600006,126.933334,38.605469
219.733337,432.266663,115.466675,38.609375
225.200012,435.200012,122.666664,38.613281
218.133331,426.666687,116.800003,38.613281
225.066666,438.800018,119.333336,38.613281
219.199997,427.599976,114.799995,38.609375
224.799988,438.533325,120.0,38.613281
222.666656,425.333313,121.466667,38.613281
219.733337,437.733337,117.466667,38.609375
226.399994,426.399994,123.333328,38.613281
217.46666,436.799988,112.266663,38.609375
226.266663,428.666656,128.800003,38.609375
217.46666,433.733337,112.133331,38.613281
218.266663,426.933319,124.933327,38.613281
223.46666,435.600006,112.533333,38.613281
219.599991,433.733337,126.26667,38.613281
222.800003,429.06665,115.600006,38.613281
228.399994,435.200012,129.733337,38.609375
216.800003,428.133301,111.066666,38.613281
222.800003,438.0,123.866661,38.617188
224.933334,426.399994,119.466667,38.617188
216.399994,436.666687,118.800003,38.617188
225.466675,426.799988,123.46666,38.617188
216.800003,436.399994,113.73333,38.617188
224.799988,431.733337,125.866669,38.621094
223.866669,437.866669,113.73333,38.617188
218.933334,429.599976,123.866661,38.621094
222.133331,432.799988,114.666664,38.621094
220.666672,435.066681,123.866661,38.621094
212.266678,434.266663,109.599998,38.617188
229.599991,436.799988,128.266663,38.617188
214.933334,427.333344,113.333328,38.621094
225.599991,439.199982,120.933334,38.621094
227.733322,429.733307,114.399994,38.621094
214.933334,436.266663,119.466667,38.621094
228.399994,427.200012,125.066673,38.621094
217.46666,436.533325,110.800003,38.621094
217.333344,426.0,119.733337,38.621094
225.599991,438.0,116.800003,38.617188
218.266663,428.533325,127.066666,38.621094
225.466675,434.133331,112.399994,38.621094
230.0,432.666656,129.066666,38.621094
214.799988,431.333344,110.666664,38.621094
226.53334,438.0,124.799995,38.621094
218.399994,426.0,116.933334,38.625
218.133331,437.06665,120.933334,38.628906
224.133331,425.866669,120.933334,38.625
219.333328,437.866669,114.666664,38.625
223.46666,427.866669,112.799995,38.625
220.400009,433.733337,126.53334,38.625
225.466675,428.93335,114.0,38.625
218.799988,436.799988,120.133331,38.625
223.733337,425.466644,122.399994,38.625
227.46666,438.93335,123.46666,38.625
218.133331,425.066681,117.066666,38.625
222.800003,436.533325,117.466667,38.625
222.0,429.06665,124.933327,38.628906
213.600006,436.133362,113.199997,38.628906
228.799988,431.333344,129.600006,38.628906
214.266663,432.93335,109.733337,38.628906
226.0,436.133362,128.666672,38.628906
224.799988,436.399994,112.266663,38.628906
219.199997,434.533356,126.26667,38.628906
223.066681,427.466675,116.933334,38.628906
221.200012,437.466675,116.133339,38.628906
218.266663,426.799988,112.266663,38.628906
224.0,438.533325,117.733337,38.628906
220.93335,425.600006,124.933327,38.625
219.333328,437.200012,112.799995,38.625
229.599991,428.0,124.799995,38.628906
214.400009,436.0,113.46666,38.628906
228.266663,431.600006,130.0,38.628906
217.46666,432.133331,109.066666,38.628906
216.399994,429.866669,125.733337,38.628906
223.866669,433.466675,113.333328,38.628906
216.266663,435.200012,122.533333,38.628906
225.200012,427.466675,116.26667,38.628906
229.466675,438.0,126.0,38.628906
216.266663,424.933319,115.333336,38.628906
224.533325,440.533325,119.466667,38.632812
217.46666,424.799988,121.466667,38.632812
213.333344,437.733337,116.800003,38.632812
229.733337,426.266663,126.0,38.632812
213.600006,436.933319,110.266663,38.632812
224.133331,432.400024,131.733337,38.632812
223.733337,436.399994,112.133331,38.632812
219.866653,432.400024,126.933334,38.632812
225.333328,432.666656,111.73333,38.632812
218.266663,434.399994,123.199997,38.632812
212.666656,429.733307,110.266663,38.632812
230.0,436.133362,126.800003,38.632812
214.799988,426.666687,112.666664,38.632812
226.399994,436.933319,121.333328,38.632812
228.666672,426.266663,118.533333,38.636719
214.533325,435.866669,116.0,38.636719
230.266663,429.06665,126.800003,38.636719
212.266678,434.666687,110.933334,38.636719
217.333344,426.266663,124.666664,38.636719
226.53334,437.733337,112.799995,38.636719
216.666656,430.0,127.333336,38.640625
222.933334,432.0,113.73333,38.640625
229.733337,433.200012,130.800003,38.640625
215.466675,429.199982,109.466667,38.636719
224.0,437.599976,121.466667,38.640625
219.599991,425.466644,120.133331,38.640625
215.866669,435.333313,120.266663,38.640625
228.533325,427.733337,122.0,38.640625
214.933334,435.200012,113.066666,38.640625
225.599991,430.666656,128.399994,38.640625
226.933319,437.333344,117.866669,38.640625
218.133331,429.733307,124.799995,38.640625
222.666656,433.866638,115.066673,38.644531
220.533325,434.133331,122.533333,38.640625
212.0,433.466675,110.533333,38.640625
229.466675,436.133362,128.133331,38.640625
213.333344,427.06665,113.199997,38.640625
225.866669,437.866669,121.066666,38.644531
227.866669,430.800018,115.333336,38.640625
215.466675,436.666687,118.0,38.644531
229.733337,426.933319,125.200005,38.644531
215.333328,435.866669,110.533333,38.644531
217.199997,426.399994,123.333328,38.644531
226.399994,438.399994,116.133339,38.644531
219.466675,430.666656,126.933334,38.644531
223.199997,432.666656,112.533333,38.644531
228.933334,433.866638,128.666672,38.640625
215.200012,429.599976,111.73333,38.644531
222.0,435.333313,126.26667,38.644531
220.800003,428.0,115.066673,38.644531
217.199997,435.333313,119.333336,38.640625
225.733337,427.06665,124.0,38.644531
216.666656,435.733337,115.333336,38.644531
226.266663,429.333344,127.066666,38.644531
225.599991,438.0,116.800003,38.644531
218.0,428.0,126.400002,38.644531
220.400009,434.666687,112.533333,38.644531
221.866669,432.799988,123.333328,38.644531
212.266678,435.066681,109.866669,38.644531
230.666672,432.799988,130.533325,38.644531
214.133331,430.666656,110.800003,38.648438
226.133331,437.06665,123.333328,38.644531
226.933319,430.800018,116.26667,38.644531
216.53334,434.533356,118.0,38.648438
224.666672,428.399994,123.73333,38.644531
218.666672,435.333313,112.666664,38.644531
217.066666,427.866669,119.199997,38.648438
224.133331,436.799988,118.400002,38.644531
218.533325,430.666656,124.799995,38.644531
220.800003,432.533325,114.799995,38.648438
225.066666,435.333313,122.0,38.652344
223.199997,430.800018,119.866669,38.65625
216.266663,433.866638,113.46666,38.652344
226.800003,432.400024,125.733337,38.652344
218.666672,434.799988,115.600006,38.652344
223.866669,431.600006,123.73333,38.65625
222.933334,433.200012,112.399994,38.65625
217.333344,431.866699,124.666664,38.65625
222.133331,433.333313,117.466667,38.65625
221.600006,431.466675,119.866669,38.660156
222.666656,431.866699,118.800003,38.660156
221.600006,434.0,119.733337,38.660156
217.199997,430.800018,116.666672,38.660156
225.200012,434.533356,121.333328,38.65625
224.533325,431.600006,120.400002,38.660156
215.333328,433.466675,117.866669,38.660156
225.066666,432.666656,124.0,38.660156
218.133331,433.733337,112.933334,38.664062
223.46666,431.333344,125.600006,38.660156
219.199997,431.866699,114.799995,38.660156
218.533325,429.866669,122.0,38.660156
223.066681,432.533325,116.53334,38.660156
219.466675,431.333344,121.73333,38.660156
223.866669,433.200012,119.333336,38.664062
228.0,432.133331,124.799995,38.664062
218.266663,431.600006,115.733337,38.664062
228.399994,432.799988,122.533333,38.660156
218.133331,432.799988,118.933334,38.664062
215.333328,431.333344,120.266663,38.664062
227.46666,435.066681,122.0,38.664062
214.533325,432.266663,117.200005,38.664062
228.799988,433.733337,122.266663,38.664062
226.666656,434.266663,118.666672,38.667969
213.600006,432.533325,121.199997,38.667969
228.0,432.666656,117.200005,38.667969
214.533325,431.199982,119.866669,38.667969
219.06665,432.400024,118.800003,38.667969
223.866669,432.133331,121.066666,38.667969
220.133347,431.06665,116.666672,38.667969
224.533325,432.0,120.0,38.667969
218.799988,431.600006,116.666672,38.664062
222.399994,432.0,120.400002,38.667969
218.799988,432.533325,118.800003,38.667969
220.133347,431.466675,121.466667,38.667969
227.600006,434.133331,121.866669,38.667969
214.266663,430.93335,116.400002,38.667969
226.133331,434.933319,120.933334,38.667969
218.533325,431.06665,117.066666,38.667969
215.333328,432.93335,119.733337,38.671875
227.199997,433.333313,119.199997,38.667969
214.533325,432.266663,120.533333,38.671875
227.733322,433.200012,118.533333,38.667969
227.733322,432.799988,122.533333,38.671875
