mx,my,mz,temp
203.733337,440.666656,99.066666,33.25
193.866669,438.133301,98.26667,33.25
201.733337,441.06665,98.533333,33.246094
197.46666,438.666656,98.666672,33.25
206.266663,441.06665,99.066666,33.246094
192.53334,437.200012,97.333336,33.246094
205.066666,441.199982,99.466667,33.246094
192.933334,438.133301,96.800003,33.246094
199.733337,440.0,98.666672,33.246094
195.599991,438.93335,98.666672,33.246094
202.933334,440.800018,99.599998,33.246094
192.266678,438.0,98.133331,33.242188
194.0,438.266663,98.26667,33.242188
198.399994,440.0,98.800003,33.246094
200.0,439.333344,98.533333,33.242188
195.599991,438.93335,98.533333,33.242188
192.266678,438.0,97.466667,33.242188
203.199997,440.800018,98.400002,33.242188
195.599991,438.266663,98.666672,33.246094
199.866653,440.93335,98.26667,33.242188
195.733337,438.133301,97.866669,33.242188
204.533325,441.199982,99.599998,33.238281
192.399994,437.866669,97.466667,33.242188
203.866669,441.333344,98.533333,33.238281
196.53334,439.599976,98.133331,33.242188
201.066666,440.400024,98.133331,33.238281
193.733337,438.666656,97.466667,33.238281
203.333344,440.800018,99.333336,33.238281
203.46666,441.466675,98.666672,33.238281
195.466675,438.266663,98.800003,33.238281
200.0,440.800018,98.400002,33.238281
197.333344,439.06665,98.800003,33.238281
204.400009,441.333344,99.333336,33.238281
192.53334,437.866669,97.333336,33.238281
205.200012,441.199982,99.466667,33.238281
192.53334,438.0,97.733337,33.238281
199.599991,438.666656,98.533333,33.238281
197.333344,440.0,98.0,33.238281
200.0,439.866669,98.800003,33.238281
193.866669,438.800018,98.400002,33.234375
191.866669,437.866669,97.600006,33.234375
203.46666,441.06665,98.666672,33.234375
193.066681,438.266663,98.400002,33.234375
201.200012,440.93335,99.333336,33.234375
194.533325,438.399994,98.26667,33.230469
204.266663,440.93335,99.866669,33.234375
193.066681,437.866669,97.600006,33.234375
204.933334,441.333344,100.0,33.234375
198.399994,440.266693,98.133331,33.234375
200.533325,439.599976,98.800003,33.230469
195.466675,438.93335,98.666672,33.234375
203.333344,440.800018,100.133331,33.234375
202.266678,441.333344,98.533333,33.234375
196.266663,438.399994,99.199997,33.230469
199.733337,440.0,99.066666,33.230469
199.733337,439.199982,98.800003,33.230469
204.933334,441.199982,99.333336,33.230469
192.266678,437.866669,97.333336,33.230469
204.133331,441.199982,100.133331,33.230469
195.333328,438.266663,98.533333,33.230469
202.53334,440.133331,99.066666,33.226562
194.799988,438.266663,98.0,33.230469
203.066681,440.800018,99.599998,33.230469
190.666672,437.866669,97.600006,33.226562
196.133331,438.666656,98.400002,33.226562
198.133331,440.133331,98.666672,33.226562
200.800003,439.599976,98.533333,33.226562
195.333328,438.666656,98.0,33.226562
194.0,438.0,97.600006,33.226562
200.666672,440.400024,98.933334,33.226562
196.666656,438.666656,99.066666,33.226562
196.399994,439.599976,98.26667,33.226562
192.399994,438.0,97.466667,33.226562
203.866669,441.199982,99.599998,33.226562
194.0,438.0,98.26667,33.226562
200.666672,440.800018,97.466667,33.226562
192.53334,437.866669,97.600006,33.222656
203.600006,441.199982,99.733337,33.226562
191.733337,437.866669,97.600006,33.226562
203.46666,441.199982,98.800003,33.226562
197.600006,439.733307,98.133331,33.222656
201.466675,440.0,98.666672,33.222656
194.533325,438.399994,98.133331,33.222656
204.400009,441.06665,98.666672,33.222656
203.46666,438.800018,98.800003,33.222656
193.333344,437.333344,97.733337,33.226562
201.200012,441.06665,98.800003,33.222656
197.600006,438.533325,97.466667,33.222656
204.133331,440.93335,98.800003,33.222656
190.666672,437.866669,97.333336,33.21875
204.133331,440.800018,98.666672,33.21875
190.93335,438.133301,97.600006,33.21875
198.799988,439.333344,98.400002,33.222656
196.53334,438.93335,97.066666,33.21875
202.666656,440.266693,97.466667,33.21875
193.333344,438.133301,97.466667,33.21875
194.133331,438.133301,97.600006,33.21875
201.600006,440.666656,98.533333,33.21875
197.333344,438.666656,98.400002,33.21875
197.46666,439.06665,97.600006,33.21875
194.666672,437.733337,96.933334,33.21875
204.400009,441.06665,99.333336,33.21875
192.266678,438.0,97.600006,33.21875
202.800003,440.533325,97.466667,33.21875
195.066666,439.06665,97.866669,33.21875
202.53334,440.400024,98.400002,33.21875
192.133331,437.866669,98.0,33.214844
204.133331,440.800018,99.333336,33.21875
201.066666,440.666656,98.133331,33.21875
195.200012,437.733337,98.0,33.214844
199.199997,440.266693,98.666672,33.214844
198.266663,438.93335,97.866669,33.214844
204.133331,440.93335,98.933334,33.214844
192.266678,437.599976,96.26667,33.214844
205.066666,440.93335,98.800003,33.214844
192.933334,438.133301,97.333336,33.214844
201.866669,439.466675,98.26667,33.214844
195.733337,439.199982,98.0,33.214844
202.666656,440.266693,98.0,33.214844
193.333344,438.133301,97.466667,33.214844
193.733337,437.866669,97.600006,33.214844
200.400009,441.06665,98.666672,33.214844
196.933319,438.266663,97.733337,33.210938
198.533325,439.866669,98.533333,33.210938
191.200012,437.733337,97.200005,33.214844
204.799988,441.333344,99.599998,33.214844
192.800003,437.866669,97.333336,33.210938
202.0,441.333344,98.400002,33.214844
196.933319,439.733307,98.133331,33.210938
200.800003,440.0,98.933334,33.210938
193.46666,438.399994,97.733337,33.210938
204.133331,440.800018,98.800003,33.210938
194.533325,437.733337,97.200005,33.210938
202.933334,440.666656,99.333336,33.210938
196.399994,438.0,97.866669,33.210938
199.199997,440.266693,98.0,33.207031
193.199997,438.0,97.600006,33.207031
205.200012,441.06665,99.599998,33.210938
192.399994,437.866669,97.733337,33.210938
202.933334,441.199982,99.599998,33.210938
201.200012,440.800018,98.26667,33.210938
194.533325,437.866669,97.866669,33.207031
200.266663,441.199982,98.933334,33.210938
195.466675,438.800018,98.0,33.207031
202.53334,441.333344,98.666672,33.207031
193.066681,438.0,98.26667,33.207031
203.46666,440.93335,99.599998,33.207031
192.399994,438.0,97.600006,33.207031
197.733322,439.466675,98.400002,33.207031
196.0,438.666656,97.733337,33.207031
202.133331,440.533325,99.199997,33.207031
193.333344,438.133301,98.400002,33.207031
193.733337,438.133301,97.733337,33.207031
202.133331,441.333344,98.800003,33.207031
194.933334,438.666656,98.800003,33.207031
198.133331,440.133331,97.200005,33.203125
192.133331,437.866669,97.333336,33.203125
203.600006,441.199982,99.199997,33.207031
192.666656,437.599976,97.200005,33.203125
204.133331,441.06665,98.666672,33.203125
198.0,440.0,98.0,33.203125
201.200012,439.866669,98.800003,33.207031
194.933334,438.533325,97.466667,33.203125
203.733337,440.800018,99.066666,33.203125
206.0,441.333344,98.800003,33.203125
194.533325,437.866669,97.333336,33.203125
202.0,441.600006,98.800003,33.203125
195.599991,438.399994,97.066666,33.203125
202.933334,440.666656,98.666672,33.203125
192.53334,437.866669,97.866669,33.203125
204.533325,441.199982,99.199997,33.203125
192.399994,435.733337,96.133339,33.203125
195.200012,439.06665,98.0,33.199219
199.733337,440.400024,97.866669,33.203125
199.733337,439.333344,98.666672,33.199219
197.066666,439.466675,98.133331,33.199219
191.466675,439.199982,97.333336,33.199219
203.866669,441.199982,99.199997,33.199219
195.066666,438.0,98.533333,33.203125
201.466675,440.93335,98.800003,33.199219
197.199997,438.666656,97.733337,33.199219
203.600006,440.266693,97.866669,33.199219
192.53334,437.733337,97.600006,33.199219
204.799988,441.199982,99.599998,33.199219
204.133331,441.466675,98.666672,33.199219
194.400009,438.0,97.200005,33.199219
201.733337,440.93335,98.666672,33.199219
197.333344,438.666656,98.800003,33.199219
203.333344,440.666656,98.666672,33.199219
193.066681,437.733337,97.333336,33.199219
205.066666,441.199982,99.599998,33.199219
191.333328,437.866669,97.200005,33.199219
195.066666,438.399994,98.26667,33.199219
199.466675,440.666656,98.26667,33.199219
198.666672,438.800018,98.933334,33.199219
196.266663,439.333344,98.400002,33.199219
189.466675,438.0,97.333336,33.195312
202.666656,441.06665,97.866669,33.199219
196.266663,437.733337,99.466667,33.195312
199.199997,440.0,97.333336,33.195312
191.466675,438.133301,97.200005,33.195312
190.400009,437.866669,97.333336,33.195312
203.866669,441.466675,98.800003,33.195312
195.599991,438.399994,98.666672,33.195312
202.133331,440.133331,98.533333,33.195312
192.0,438.133301,98.26667,33.195312
204.266663,441.199982,99.066666,33.195312
192.399994,438.0,97.866669,33.195312
199.866653,439.733307,98.26667,33.195312
195.200012,438.93335,98.666672,33.195312
201.333328,440.266693,98.933334,33.195312
194.400009,438.533325,98.26667,33.191406
193.066681,438.133301,97.733337,33.195312
203.066681,441.333344,97.466667,33.191406
194.133331,438.133301,98.400002,33.191406
201.600006,441.06665,98.666672,33.195312
194.400009,438.533325,97.733337,33.191406
202.266678,441.06665,98.800003,33.191406
192.666656,437.733337,96.400002,33.195312
203.866669,440.666656,99.066666,33.191406
203.199997,441.199982,98.800003,33.191406
194.533325,438.133301,98.533333,33.195312
198.933334,440.666656,98.0,33.191406
197.600006,438.800018,97.866669,33.191406
202.666656,438.133301,98.400002,33.191406
193.066681,436.933319,98.0,33.191406
204.666672,441.06665,99.466667,33.191406
192.266678,437.466675,96.666672,33.191406
197.600006,438.800018,98.533333,33.191406
197.866669,439.466675,98.0,33.191406
199.466675,439.599976,98.533333,33.191406
194.799988,438.533325,98.400002,33.191406
192.933334,437.866669,97.466667,33.191406
202.666656,441.333344,98.133331,33.191406
193.866669,437.733337,96.933334,33.191406
199.199997,440.533325,98.800003,33.191406
192.933334,438.133301,97.600006,33.191406
203.600006,441.199982,98.533333,33.1875
192.53334,437.599976,97.466667,33.1875
204.666672,441.199982,98.933334,33.1875
201.200012,440.400024,97.866669,33.191406
198.933334,439.466675,98.933334,33.1875
195.733337,439.06665,97.866669,33.191406
202.399994,440.0,97.866669,33.1875
203.733337,441.333344,98.800003,33.1875
194.266663,438.0,98.400002,33.1875
201.333328,441.06665,98.133331,33.1875
195.333328,438.399994,98.0,33.1875
203.199997,440.93335,98.533333,33.1875
192.933334,437.733337,97.600006,33.1875
204.666672,441.199982,98.533333,33.1875
193.46666,438.0,97.600006,33.1875
199.199997,439.333344,98.533333,33.1875
196.266663,439.06665,97.733337,33.1875
202.399994,439.866669,97.733337,33.1875
193.46666,437.466675,97.200005,33.1875
196.399994,437.866669,97.733337,33.1875
201.600006,440.93335,98.26667,33.1875
194.266663,437.599976,96.800003,33.1875
199.599991,440.266693,98.400002,33.183594
201.733337,440.400024,98.800003,33.1875
192.53334,437.599976,97.600006,33.183594
205.066666,441.06665,99.333336,33.183594
192.53334,437.866669,98.0,33.183594
197.733322,438.93335,98.26667,33.183594
197.46666,439.599976,98.400002,33.183594
201.200012,439.866669,98.0,33.183594
194.133331,438.266663,97.066666,33.183594
195.599991,438.0,97.466667,33.183594
202.666656,441.199982,98.800003,33.183594
196.399994,438.533325,98.933334,33.183594
198.533325,440.133331,98.400002,33.183594
191.333328,437.866669,97.066666,33.183594
202.800003,441.06665,99.466667,33.183594
192.0,438.133301,96.400002,33.179688
202.800003,441.199982,98.400002,33.183594
194.0,438.800018,97.866669,33.183594
202.53334,440.93335,98.666672,33.183594
192.933334,437.733337,97.066666,33.179688
204.666672,440.266693,99.866669,33.183594
199.599991,440.400024,97.866669,33.179688
201.066666,439.866669,98.26667,33.183594
194.266663,438.266663,97.466667,33.183594
204.133331,441.06665,98.800003,33.183594
205.066666,441.466675,98.400002,33.183594
194.133331,437.733337,97.733337,33.179688
199.866653,440.666656,98.800003,33.179688
199.466675,439.466675,98.0,33.183594
204.133331,441.06665,98.800003,33.183594
192.133331,438.0,97.466667,33.179688
202.266678,441.333344,98.26667,33.179688
195.733337,437.866669,97.333336,33.179688
202.666656,440.533325,98.133331,33.179688
193.199997,437.733337,96.400002,33.179688
203.600006,440.93335,98.533333,33.179688
192.53334,437.733337,96.933334,33.179688
198.133331,439.06665,97.866669,33.179688
197.066666,439.199982,97.866669,33.179688
199.06665,439.199982,98.133331,33.179688
194.400009,438.533325,97.466667,33.179688
193.333344,437.733337,97.066666,33.179688
199.866653,440.93335,98.26667,33.175781
197.333344,438.533325,97.866669,33.179688
195.599991,439.06665,97.466667,33.179688
193.600006,438.0,96.933334,33.179688
201.600006,441.199982,98.800003,33.179688
196.266663,438.533325,98.0,33.175781
198.933334,440.266693,98.26667,33.175781
192.666656,438.0,96.800003,33.179688
204.266663,441.199982,98.0,33.179688
193.866669,438.133301,97.733337,33.175781
201.866669,440.93335,97.333336,33.175781
194.400009,438.666656,97.200005,33.175781
203.733337,440.800018,98.800003,33.175781
192.399994,437.733337,97.066666,33.175781
203.199997,441.333344,99.066666,33.175781
199.866653,440.133331,97.733337,33.179688
200.0,439.599976,98.0,33.179688
194.666672,438.800018,97.333336,33.175781
203.46666,440.800018,97.333336,33.175781
203.733337,439.733307,98.400002,33.175781
194.133331,438.133301,98.0,33.175781
201.466675,441.06665,97.466667,33.175781
197.733322,438.93335,98.666672,33.175781
203.46666,440.93335,98.26667,33.175781
191.066666,437.733337,97.466667,33.175781
204.133331,441.199982,98.533333,33.175781
191.866669,438.266663,97.066666,33.175781
195.733337,438.0,97.466667,33.175781
198.799988,440.0,98.0,33.171875
200.0,439.733307,97.866669,33.175781
194.933334,438.800018,97.066666,33.175781
193.866669,438.133301,97.066666,33.175781
203.600006,441.333344,98.26667,33.171875
195.466675,438.133301,97.200005,33.171875
200.0,440.266693,98.26667,33.175781
193.866669,437.200012,97.600006,33.175781
202.666656,441.06665,99.466667,33.175781
192.0,437.866669,96.800003,33.171875
204.133331,441.199982,99.333336,33.171875
198.399994,440.133331,97.866669,33.171875
198.666672,439.599976,98.133331,33.171875
194.0,439.06665,97.600006,33.171875
203.066681,440.800018,98.800003,33.171875
203.600006,441.199982,98.400002,33.171875
195.333328,438.133301,97.600006,33.171875
201.733337,440.133331,99.066666,33.171875
194.533325,438.399994,97.866669,33.171875
203.46666,440.266693,98.400002,33.171875
193.600006,438.133301,97.333336,33.171875
204.799988,441.06665,98.933334,33.171875
191.866669,437.866669,96.800003,33.171875
198.266663,438.93335,98.26667,33.171875
196.53334,439.333344,97.733337,33.167969
199.866653,440.133331,98.26667,33.171875
194.400009,438.399994,97.200005,33.171875
198.133331,436.399994,97.333336,33.167969
202.0,441.199982,98.400002,33.171875
195.200012,438.133301,98.133331,33.171875
200.133347,440.533325,96.800003,33.171875
193.333344,438.133301,97.200005,33.167969
204.533325,441.06665,97.733337,33.167969
192.133331,437.866669,97.466667,33.167969
203.333344,440.93335,98.933334,33.167969
200.0,440.400024,97.733337,33.167969
196.133331,438.399994,96.933334,33.167969
196.800003,439.733307,97.733337,33.167969
199.333328,440.0,98.533333,33.167969
205.333328,441.06665,99.199997,33.167969
192.53334,437.333344,98.0,33.167969
202.399994,440.533325,98.666672,33.167969
196.53334,438.666656,98.533333,33.167969
201.333328,440.93335,98.133331,33.167969
196.800003,438.666656,97.600006,33.167969
198.666672,440.133331,98.800003,33.167969
199.866653,439.599976,98.26667,33.167969
204.666672,441.06665,99.466667,33.167969
193.199997,438.0,98.0,33.167969
202.666656,441.333344,98.533333,33.167969
192.53334,437.599976,96.800003,33.167969
202.266678,440.0,98.533333,33.164062
194.533325,438.666656,96.53334,33.167969
203.600006,440.800018,98.933334,33.167969
192.399994,438.0,97.600006,33.167969
194.400009,438.133301,97.733337,33.164062
199.733337,440.400024,98.0,33.167969
199.733337,439.866669,98.933334,33.167969
195.599991,438.93335,98.533333,33.164062
193.46666,437.866669,97.600006,33.164062
201.600006,441.06665,98.133331,33.167969
195.866669,438.533325,97.200005,33.164062
196.266663,439.199982,98.26667,33.164062
191.866669,438.0,97.333336,33.164062
204.0,441.199982,99.199997,33.164062
194.0,438.0,97.466667,33.164062
200.266663,440.666656,98.400002,33.167969
194.666672,438.666656,98.0,33.164062
204.0,440.93335,99.066666,33.164062
192.133331,437.333344,97.333336,33.164062
204.400009,441.06665,99.333336,33.164062
200.666672,439.466675,98.26667,33.164062
197.866669,439.199982,99.066666,33.164062
197.600006,439.733307,98.933334,33.164062
199.599991,440.266693,98.400002,33.164062
202.800003,441.199982,98.800003,33.164062
194.133331,438.399994,98.133331,33.164062
200.266663,440.666656,97.733337,33.164062
198.666672,439.199982,98.933334,33.164062
204.799988,441.199982,99.066666,33.160156
192.800003,438.133301,98.0,33.160156
203.199997,441.333344,98.0,33.164062
195.466675,438.266663,98.666672,33.164062
203.866669,440.800018,98.933334,33.160156
192.266678,436.933319,97.333336,33.164062
204.666672,441.199982,99.199997,33.164062
193.066681,438.133301,96.800003,33.164062
201.733337,440.93335,99.066666,33.164062
192.266678,438.0,97.600006,33.160156
204.133331,441.199982,98.533333,33.164062
193.333344,438.266663,98.0,33.160156
199.06665,439.333344,98.26667,33.164062
196.266663,439.599976,97.066666,33.160156
200.400009,440.133331,98.800003,33.160156
194.533325,438.800018,98.133331,33.164062
194.400009,438.133301,97.733337,33.160156
201.200012,440.800018,98.533333,33.160156
198.266663,438.93335,97.066666,33.160156
197.066666,439.333344,97.600006,33.160156
192.53334,437.866669,97.200005,33.160156
205.333328,441.06665,99.199997,33.160156
191.333328,438.266663,97.333336,33.160156
202.399994,441.06665,98.0,33.160156
196.53334,438.93335,97.866669,33.160156
201.066666,439.733307,97.333336,33.160156
193.199997,438.399994,97.200005,33.160156
204.533325,441.06665,99.599998,33.160156
201.733337,441.199982,98.533333,33.160156
196.266663,438.93335,98.133331,33.160156
197.866669,439.866669,97.600006,33.160156
201.466675,440.133331,99.066666,33.15625
203.199997,441.333344,98.933334,33.160156
193.46666,438.0,97.600006,33.160156
202.133331,441.06665,98.800003,33.160156
197.199997,438.800018,98.400002,33.160156
204.133331,440.93335,98.933334,33.160156
192.666656,437.466675,97.200005,33.160156
204.799988,441.06665,98.666672,33.160156
192.399994,437.866669,97.600006,33.15625
196.0,437.200012,98.26667,33.15625
197.600006,440.133331,98.0,33.15625
201.200012,440.133331,98.0,33.160156
194.533325,438.533325,98.666672,33.15625
193.199997,438.133301,97.466667,33.160156
202.666656,440.800018,98.133331,33.15625
196.666656,438.0,96.933334,33.15625
198.133331,440.266693,97.866669,33.160156
192.800003,440.533325,98.400002,33.15625
209.06665,444.0,117.333336,33.15625
198.266663,438.133301,117.200005,33.160156
200.800003,443.600006,100.533333,33.15625
196.133331,437.200012,115.466675,33.15625
204.533325,441.733337,98.666672,33.15625
199.199997,438.666656,115.066673,33.15625
200.133347,440.0,98.0,33.15625
196.399994,433.200012,113.599998,33.160156
204.133331,444.799988,102.266663,33.15625
200.93335,434.399994,114.533325,33.15625
196.933319,442.93335,100.933334,33.15625
196.0,432.666656,102.799995,33.160156
203.866669,444.666687,108.533333,33.15625
201.866669,433.866638,105.466675,33.15625
194.799988,442.266663,107.733337,33.15625
194.666672,437.733337,98.800003,33.15625
205.066666,441.466675,114.0,33.152344
200.800003,438.533325,99.333336,33.15625
199.199997,440.400024,113.333328,33.15625
193.066681,441.199982,99.199997,33.15625
207.199997,437.866669,117.733337,33.15625
199.333328,442.266663,100.133331,33.15625
199.466675,436.133362,115.866669,33.15625
196.666656,442.666656,104.0,33.15625
204.133331,433.866638,110.533333,33.152344
202.266678,444.533356,105.200005,33.152344
196.666656,432.133331,109.599998,33.15625
200.800003,441.866699,113.73333,33.152344
196.933319,435.466644,100.800003,33.152344
207.866669,442.400024,115.466675,33.15625
194.266663,434.666687,100.266663,33.152344
204.533325,437.599976,116.800003,33.15625
194.533325,440.133331,99.866669,33.152344
209.466675,438.800018,116.933334,33.15625
192.933334,440.0,98.26667,33.15625
205.200012,434.533356,112.399994,33.15625
195.733337,442.133331,102.266663,33.152344
208.799988,435.733337,114.533325,33.152344
192.666656,441.866699,102.533333,33.152344
202.0,434.399994,106.133339,33.152344
197.333344,441.600006,109.333336,33.152344
206.933319,435.733337,106.0,33.152344
194.133331,441.199982,108.933334,33.15625
201.600006,439.599976,100.533333,33.15625
197.733322,437.599976,115.733337,33.152344
205.866669,440.400024,102.266663,33.152344
194.933334,438.133301,113.866661,33.152344
200.266663,442.0,101.466667,33.152344
200.266663,435.466644,116.133339,33.152344
204.933334,442.533325,101.466667,33.152344
195.866669,436.266663,115.333336,33.152344
206.0,441.466675,114.0,33.152344
200.666672,436.399994,102.399994,33.152344
198.0,439.333344,112.799995,33.152344
206.266663,438.133301,103.333328,33.152344
202.266678,435.733337,116.133339,33.152344
204.0,442.666656,102.399994,33.152344
196.933319,434.399994,114.266663,33.152344
204.799988,442.133331,102.533333,33.152344
199.599991,433.066681,109.199997,33.152344
206.399994,443.733337,108.133331,33.152344
196.666656,433.333313,108.400002,33.152344
202.800003,443.066681,108.533333,33.152344
193.46666,436.266663,100.933334,33.148438
207.46666,440.266693,116.0,33.152344
196.133331,437.599976,102.533333,33.152344
201.600006,437.866669,114.266663,33.152344
194.533325,440.133331,101.866669,33.152344
206.666656,436.799988,115.066673,33.152344
197.600006,441.733337,103.333328,33.152344
200.666672,434.399994,113.066666,33.148438
194.799988,440.266693,108.800003,33.152344
205.733337,436.133362,108.666672,33.152344
200.800003,441.733337,108.800003,33.148438
198.266663,433.866638,108.0,33.152344
198.133331,437.599976,114.133331,33.152344
202.399994,438.133301,101.866669,33.152344
204.266663,439.599976,115.866669,33.152344
193.733337,436.399994,100.666664,33.152344
197.46666,435.333313,114.799995,33.148438
199.466675,441.866699,102.666664,33.152344
205.466675,436.933319,116.0,33.152344
194.533325,439.06665,101.333328,33.152344
198.666672,434.399994,109.199997,33.152344
199.866653,441.333344,107.333336,33.152344
205.200012,435.466644,110.266663,33.152344
193.600006,439.866669,106.666672,33.152344
197.733322,436.799988,103.866661,33.152344
200.533325,438.666656,111.199997,33.152344
205.200012,438.800018,104.799995,33.152344
195.466675,437.466675,112.0,33.152344
201.733337,440.800018,102.533333,33.152344
198.133331,434.666687,114.0,33.152344
205.200012,441.866699,104.266663,33.152344
196.53334,434.933319,114.266663,33.152344
203.866669,441.733337,108.933334,33.152344
196.0,434.133331,107.733337,33.152344
207.066666,442.666656,109.333336,33.152344
198.266663,434.399994,108.933334,33.152344
204.933334,440.0,113.866661,33.152344
194.0,435.866669,102.0,33.152344
207.46666,440.0,114.0,33.152344
196.933319,437.333344,104.0,33.152344
208.133331,438.266663,115.333336,33.152344
193.46666,437.599976,100.266663,33.152344
207.46666,438.0,115.066673,33.152344
195.866669,438.800018,102.799995,33.15625
206.800003,437.599976,111.466667,33.152344
193.199997,439.599976,106.400002,33.152344
207.333344,437.466675,110.666664,33.15625
200.0,441.199982,107.600006,33.152344
207.066666,438.666656,105.466675,33.152344
194.933334,437.866669,111.73333,33.152344
203.333344,438.0,103.866661,33.152344
203.46666,439.06665,112.933334,33.15625
206.800003,441.06665,103.599998,33.15625
199.06665,435.466644,113.46666,33.15625
199.866653,439.599976,102.799995,33.15625
206.53334,437.333344,113.199997,33.15625
206.399994,442.133331,108.0,33.15625
199.866653,436.533325,109.333336,33.15625
198.0,439.599976,108.26667,33.152344
206.53334,437.866669,110.400002,33.152344
205.733337,439.866669,112.266663,33.15625
197.866669,437.06665,105.466675,33.15625
200.400009,435.733337,114.133331,33.152344
197.600006,439.06665,103.73333,33.15625
196.399994,435.733337,109.066666,33.15625
204.133331,442.0,107.333336,33.15625
200.400009,436.266663,110.266663,33.15625
197.866669,439.06665,107.600006,33.15625
193.866669,436.399994,104.799995,33.15625
203.199997,439.333344,112.266663,33.15625
202.133331,438.666656,105.733337,33.160156
197.46666,436.666687,112.266663,33.160156
197.199997,438.133301,103.066666,33.160156
202.933334,437.06665,113.866661,33.160156
202.0,440.266693,105.200005,33.15625
196.133331,435.333313,112.266663,33.160156
198.666672,440.266693,107.333336,33.160156
200.400009,436.266663,109.599998,33.160156
204.666672,441.733337,108.800003,33.15625
195.466675,435.600006,108.933334,33.160156
201.733337,438.666656,112.266663,33.160156
197.733322,436.933319,106.53334,33.15625
205.200012,439.599976,112.799995,33.160156
195.466675,436.399994,106.133339,33.164062
199.866653,435.733337,112.666664,33.160156
198.799988,439.733307,104.133331,33.160156
207.733322,438.93335,114.399994,33.160156
193.733337,437.200012,103.46666,33.160156
204.400009,438.133301,111.066666,33.160156
196.0,438.93335,105.333336,33.160156
206.933319,439.333344,112.666664,33.160156
194.666672,438.399994,105.466675,33.160156
202.666656,439.06665,107.866669,33.164062
195.466675,436.666687,110.0,33.160156
207.46666,439.466675,109.466667,33.164062
195.333328,437.466675,110.133331,33.164062
205.066666,439.733307,105.333336,33.164062
195.599991,435.600006,110.800003,33.164062
206.0,439.599976,106.0,33.167969
197.066666,436.133362,110.933334,33.167969
204.666672,439.733307,107.066666,33.167969
194.666672,437.06665,109.466667,33.167969
206.53334,440.400024,106.933334,33.167969
199.466675,438.0,110.933334,33.167969
205.733337,439.733307,110.933334,33.167969
195.599991,437.333344,106.666672,33.164062
205.599991,439.466675,110.0,33.167969
199.866653,438.399994,108.533333,33.167969
206.133331,438.800018,111.599998,33.167969
193.600006,436.533325,105.333336,33.167969
206.399994,438.533325,111.066666,33.167969
198.799988,437.466675,105.866669,33.167969
207.733322,440.0,111.466667,33.167969
194.400009,437.333344,104.666664,33.171875
207.066666,439.733307,111.466667,33.167969
205.866669,439.599976,109.733337,33.171875
196.53334,436.799988,105.866669,33.175781
205.466675,438.533325,111.333328,33.175781
195.200012,436.933319,105.466675,33.175781
207.199997,438.666656,111.466667,33.175781
195.333328,437.06665,105.200005,33.171875
207.600006,440.133331,110.933334,33.175781
194.666672,437.06665,105.066673,33.175781
207.600006,438.93335,111.599998,33.175781
198.266663,437.733337,107.333336,33.175781
204.933334,440.93335,110.800003,33.175781
194.400009,436.666687,107.066666,33.175781
208.133331,440.93335,110.933334,33.175781
198.399994,436.266663,109.333336,33.179688
207.600006,440.133331,109.199997,33.179688
195.333328,435.600006,107.600006,33.175781
205.200012,439.599976,108.26667,33.179688
197.199997,435.733337,109.466667,33.179688
206.399994,439.466675,107.333336,33.183594
195.599991,436.399994,109.333336,33.179688
204.799988,438.533325,106.26667,33.179688
195.599991,438.0,108.666672,33.179688
207.066666,439.599976,109.333336,33.183594
196.0,438.533325,110.0,33.183594
202.0,438.133301,108.133331,33.183594
195.333328,437.200012,107.200005,33.183594
206.266663,438.533325,110.666664,33.1875
200.0,438.399994,108.0,33.1875
201.733337,437.06665,109.333336,33.183594
194.266663,436.399994,105.066673,33.1875
205.599991,439.06665,109.333336,33.1875
197.733322,437.06665,106.400002,33.183594
200.400009,437.333344,109.199997,33.1875
195.733337,436.666687,106.26667,33.1875
206.53334,441.333344,109.599998,33.1875
200.0,438.266663,107.733337,33.191406
199.06665,438.93335,108.666672,33.191406
194.266663,434.533356,107.866669,33.191406
205.733337,440.400024,109.733337,33.191406
200.133347,437.333344,109.733337,33.191406
199.599991,438.666656,109.066666,33.191406
195.733337,436.133362,108.133331,33.191406
204.533325,436.266663,106.666672,33.191406
200.800003,438.0,109.199997,33.195312
196.666656,436.266663,106.400002,33.195312
196.933319,439.06665,109.199997,33.195312
200.266663,438.0,107.333336,33.195312
204.666672,441.333344,110.133331,33.195312
194.933334,435.866669,105.866669,33.195312
199.466675,438.93335,108.933334,33.199219
198.799988,435.466644,109.733337,33.195312
207.333344,440.800018,110.0,33.199219
194.799988,435.733337,108.533333,33.199219
201.466675,438.93335,107.333336,33.199219
197.066666,436.399994,108.400002,33.199219
206.266663,439.333344,108.26667,33.199219
194.799988,436.533325,108.133331,33.199219
201.600006,438.0,107.333336,33.199219
196.133331,438.133301,108.933334,33.203125
206.266663,439.199982,108.800003,33.199219
195.866669,439.199982,108.933334,33.203125
205.466675,438.399994,109.599998,33.203125
194.400009,437.466675,107.600006,33.203125
205.866669,438.0,108.933334,33.207031
201.333328,438.800018,108.400002,33.207031
208.799988,439.866669,109.733337,33.207031
196.0,436.133362,106.26667,33.207031
203.333344,439.06665,108.26667,33.207031
200.93335,437.599976,107.466667,33.207031
207.199997,442.0,110.800003,33.207031
195.866669,436.266663,106.26667,33.210938
203.333344,441.06665,109.733337,33.210938
203.199997,438.133301,108.533333,33.207031
208.266663,440.666656,110.133331,33.207031
196.53334,435.866669,108.666672,33.210938
202.266678,439.466675,109.333336,33.210938
202.800003,437.466675,108.666672,33.210938
207.46666,438.666656,108.533333,33.210938
198.399994,437.06665,108.133331,33.214844
201.066666,436.933319,107.733337,33.214844
205.466675,439.466675,108.800003,33.214844
203.866669,438.399994,108.0,33.21875
200.533325,440.93335,109.866669,33.21875
197.066666,435.733337,107.066666,33.21875
206.666656,442.400024,110.800003,33.21875
204.133331,437.200012,108.400002,33.21875
204.266663,439.866669,110.666664,33.21875
195.466675,434.799988,107.066666,33.222656
207.733322,440.533325,111.066666,33.21875
202.133331,438.266663,107.600006,33.21875
203.733337,438.133301,108.26667,33.222656
195.466675,436.0,106.400002,33.222656
208.133331,438.533325,108.533333,33.222656
199.866653,440.666656,109.199997,33.222656
206.399994,438.0,108.666672,33.226562
196.399994,439.06665,108.400002,33.226562
204.933334,437.866669,106.666672,33.222656
200.133347,439.06665,109.733337,33.226562
205.733337,437.733337,108.133331,33.226562
196.0,438.666656,109.333336,33.230469
204.799988,437.466675,108.133331,33.230469
198.133331,435.733337,107.733337,33.230469
207.333344,439.866669,108.0,33.230469
196.399994,436.133362,107.866669,33.230469
203.866669,438.533325,107.066666,33.230469
196.266663,434.799988,107.200005,33.234375
207.600006,442.533325,109.733337,33.234375
195.866669,433.600006,106.800003,33.238281
203.866669,442.0,108.533333,33.238281
195.333328,434.533356,106.933334,33.238281
207.600006,440.93335,112.133331,33.238281
195.333328,434.133331,108.0,33.238281
203.46666,441.466675,110.666664,33.238281
193.733337,435.733337,104.933327,33.238281
207.866669,438.93335,110.0,33.242188
195.466675,436.133362,106.666672,33.238281
203.333344,438.0,110.533333,33.242188
195.733337,438.93335,106.0,33.246094
206.666656,437.200012,108.133331,33.242188
198.933334,440.266693,108.26667,33.246094
200.266663,435.333313,108.800003,33.246094
194.799988,440.133331,108.800003,33.25
204.933334,436.666687,108.533333,33.246094
199.333328,441.733337,110.400002,33.25
200.0,435.200012,107.866669,33.25
195.599991,437.599976,109.066666,33.25
204.133331,437.466675,105.200005,33.25
201.866669,438.266663,110.800003,33.25
198.533325,435.600006,105.733337,33.25
197.600006,434.799988,108.533333,33.253906
204.266663,440.800018,105.333336,33.253906
201.600006,436.266663,109.733337,33.253906
198.0,438.533325,105.200005,33.253906
196.133331,434.0,106.933334,33.257812
202.0,442.266663,109.866669,33.257812
204.133331,436.0,108.133331,33.257812
195.866669,440.533325,107.733337,33.257812
198.666672,436.0,105.466675,33.261719
200.666672,437.733337,110.533333,33.261719
205.333328,438.0,106.133339,33.261719
196.399994,437.466675,110.400002,33.261719
200.93335,440.666656,105.733337,33.265625
198.266663,434.533356,108.933334,33.265625
205.599991,441.199982,106.26667,33.265625
195.866669,434.399994,109.466667,33.265625
198.0,441.466675,107.600006,33.269531
200.800003,433.600006,107.333336,33.269531
204.133331,443.200012,108.133331,33.269531
194.266663,432.666656,106.933334,33.269531
202.266678,440.93335,112.133331,33.269531
197.866669,434.399994,105.866669,33.269531
208.133331,442.799988,113.333328,33.269531
194.266663,434.0,103.599998,33.273438
202.53334,437.333344,112.0,33.273438
195.866669,437.200012,103.599998,33.273438
207.46666,438.266663,113.199997,33.273438
194.799988,437.466675,103.333328,33.277344
204.133331,435.200012,109.466667,33.277344
195.599991,441.333344,106.800003,33.28125
206.133331,435.333313,110.0,33.28125
196.0,442.266663,108.0,33.28125
205.466675,436.266663,106.53334,33.28125
195.733337,439.466675,112.133331,33.28125
205.866669,435.866669,107.866669,33.285156
197.733322,441.06665,112.266663,33.28125
204.400009,439.866669,104.266663,33.285156
196.800003,436.0,112.266663,33.285156
206.133331,439.866669,104.399994,33.285156
201.066666,436.933319,113.199997,33.289062
205.200012,444.399994,107.466667,33.289062
195.866669,432.533325,109.333336,33.289062
204.933334,443.600006,106.133339,33.289062
200.800003,433.733337,111.199997,33.289062
207.066666,443.733337,112.799995,33.289062
193.066681,432.799988,103.599998,33.292969
205.733337,444.0,111.066666,33.292969
199.06665,433.600006,106.800003,33.292969
207.600006,440.266693,114.933327,33.292969
194.133331,436.133362,101.333328,33.292969
205.733337,439.466675,113.866661,33.296875
200.93335,437.866669,103.866661,33.296875
206.266663,435.466644,111.333328,33.296875
196.933319,442.133331,105.866669,33.300781
200.533325,433.200012,110.533333,33.300781
202.266678,442.666656,105.466675,33.300781
206.666656,434.933319,106.933334,33.300781
198.399994,443.066681,110.933334,33.304688
198.399994,432.799988,106.0,33.304688
207.333344,444.133331,111.199997,33.304688
202.0,438.266663,102.933334,33.304688
203.066681,439.333344,114.133331,33.308594
195.066666,436.133362,102.666664,33.308594
208.799988,440.0,115.333336,33.308594
202.266678,442.799988,104.0,33.308594
203.733337,435.333313,112.399994,33.3125
194.933334,440.133331,103.066666,33.308594
208.799988,435.333313,113.199997,33.3125
201.600006,442.93335,110.0,33.3125
203.199997,433.866638,107.733337,33.316406
196.266663,441.600006,109.599998,33.320312
206.0,434.266663,108.133331,33.316406
200.533325,439.733307,113.73333,33.316406
204.266663,438.0,103.599998,33.316406
196.666656,438.266663,112.133331,33.316406
204.799988,438.133301,103.866661,33.320312
198.799988,433.333313,112.399994,33.320312
205.466675,442.93335,104.266663,33.324219
197.46666,433.200012,112.533333,33.324219
202.933334,442.666656,104.133331,33.328125
194.799988,431.333344,105.866669,33.324219
207.46666,444.933319,111.066666,33.324219
197.066666,432.0,105.866669,33.328125
201.333328,442.799988,109.866669,33.328125
193.066681,434.133331,101.466667,33.332031
207.866669,441.199982,116.26667,33.332031
194.666672,435.200012,102.399994,33.332031
201.066666,440.133331,114.533325,33.332031
192.266678,440.133331,101.599998,33.332031
206.399994,436.0,114.533325,33.332031
198.666672,441.333344,102.933334,33.335938
200.93335,433.733337,113.73333,33.335938
194.400009,442.266663,107.200005,33.332031
205.066666,433.466675,107.866669,33.335938
201.200012,443.200012,108.800003,33.335938
197.600006,431.06665,107.600006,33.339844
196.266663,439.733307,113.066666,33.339844
200.533325,435.600006,103.333328,33.34375
203.199997,441.466675,114.399994,33.339844
194.799988,433.733337,102.266663,33.34375
200.266663,434.399994,114.133331,33.34375
197.600006,441.06665,101.599998,33.347656
208.133331,435.466644,115.066673,33.34375
193.46666,440.666656,102.133331,33.34375
201.333328,432.533325,107.200005,33.347656
196.266663,441.733337,109.199997,33.347656
207.199997,433.200012,108.533333,33.351562
195.466675,442.266663,108.133331,33.351562
202.0,438.133301,102.133331,33.351562
197.600006,438.666656,114.666664,33.351562
205.066666,437.866669,102.799995,33.355469
196.933319,439.06665,115.200005,33.351562
202.53334,443.333313,103.599998,33.359375
196.0,432.400024,113.599998,33.355469
204.533325,442.799988,103.73333,33.359375
198.799988,433.733337,115.066673,33.359375
204.400009,445.066681,108.26667,33.359375
195.466675,430.800018,106.933334,33.363281
205.733337,444.933319,108.666672,33.363281
198.266663,431.06665,109.066666,33.363281
208.799988,443.066681,115.066673,33.363281
193.733337,435.333313,100.666664,33.363281
205.733337,442.533325,115.333336,33.363281
198.933334,435.466644,102.533333,33.367188
208.799988,436.933319,116.666672,33.367188
193.333344,439.599976,102.0,33.367188
204.0,435.066681,115.066673,33.367188
200.93335,442.266663,102.799995,33.371094
208.533325,433.200012,109.599998,33.371094
198.399994,443.066681,108.400002,33.378906
200.266663,431.199982,108.0,33.378906
204.266663,445.200012,109.333336,33.378906
204.266663,436.533325,102.133331,33.378906
202.133331,441.06665,115.333336,33.382812
195.599991,434.533356,100.800003,33.378906
208.533325,442.266663,116.800003,33.382812
201.866669,441.466675,102.133331,33.386719
206.53334,435.600006,116.133339,33.386719
194.266663,439.466675,99.866669,33.386719
209.06665,436.933319,116.666672,33.386719
201.600006,444.0,106.26667,33.386719
203.333344,432.533325,110.666664,33.386719
195.066666,441.733337,105.733337,33.386719
208.666672,433.333313,112.533333,33.386719
203.866669,442.533325,112.799995,33.386719
203.600006,434.666687,104.0,33.390625
196.399994,440.666656,112.933334,33.390625
206.0,435.333313,104.0,33.394531
200.0,431.600006,110.133331,33.394531
197.866669,442.666656,106.26667,33.394531
206.666656,433.200012,111.333328,33.394531
193.46666,442.266663,105.866669,33.394531
198.666672,433.066681,103.46666,33.398438
198.933334,441.600006,113.199997,33.398438
205.599991,434.399994,105.066673,33.398438
195.733337,440.800018,112.399994,33.398438
197.733322,436.799988,100.666664,33.402344
200.400009,436.799988,116.53334,33.402344
204.133331,440.666656,102.0,33.402344
197.199997,438.0,115.600006,33.402344
206.0,444.399994,110.533333,33.40625
196.800003,430.533325,107.866669,33.40625
201.333328,443.333313,108.0,33.410156
203.066681,432.400024,107.866669,33.410156
207.866669,442.533325,116.800003,33.410156
196.133331,435.600006,101.466667,33.414062
201.200012,440.666656,116.133339,33.414062
204.799988,437.599976,101.466667,33.417969
211.200012,436.533325,117.733337,33.417969
196.399994,440.93335,101.466667,33.417969
202.800003,435.466644,117.066666,33.417969
203.199997,442.400024,101.066666,33.421875
206.133331,432.400024,110.0,33.421875
199.733337,443.066681,107.066666,33.421875
200.0,429.199982,108.933334,33.421875
206.133331,444.933319,108.533333,33.421875
200.93335,434.799988,101.599998,33.421875
203.866669,442.400024,115.200005,33.425781
194.0,432.799988,101.466667,33.425781
207.733322,443.600006,114.666664,33.425781
200.0,440.666656,100.666664,33.429688
206.0,437.200012,118.666672,33.433594
193.600006,438.399994,99.866669,33.433594
209.866653,438.800018,120.400002,33.433594
200.800003,443.066681,104.799995,33.433594
203.600006,432.266663,116.800003,33.433594
194.666672,441.06665,104.533325,33.4375
209.599991,433.333313,116.666672,33.433594
202.0,442.533325,112.133331,33.4375
201.066666,431.06665,107.333336,33.441406
195.599991,441.199982,111.066666,33.441406
207.46666,432.533325,108.800003,33.441406
202.800003,439.333344,118.26667,33.441406
201.866669,436.799988,101.199997,33.441406
197.333344,437.466675,117.600006,33.441406
204.666672,437.866669,103.066666,33.445312
201.866669,431.866699,117.333336,33.445312
204.133331,443.333313,105.200005,33.445312
196.266663,430.800018,116.53334,33.449219
204.0,443.333313,104.533325,33.445312
199.599991,429.06665,108.0,33.449219
207.333344,443.866638,112.266663,33.453125
194.799988,429.599976,107.733337,33.453125
203.866669,442.799988,111.866669,33.453125
195.066666,433.333313,100.533333,33.453125
209.466675,440.800018,120.133331,33.457031
195.333328,434.799988,101.333328,33.457031
203.733337,439.199982,118.533333,33.457031
193.199997,439.199982,101.866669,33.457031
210.133347,435.466644,120.533333,33.460938
195.466675,440.400024,102.933334,33.460938
202.53334,433.466675,118.666672,33.460938
194.266663,440.800018,107.733337,33.464844
207.600006,430.93335,110.533333,33.464844
206.933319,440.93335,119.066666,33.46875
197.733322,435.733337,102.533333,33.46875
208.799988,434.0,120.266663,33.46875
191.200012,439.466675,102.133331,33.46875
208.133331,435.066681,118.26667,33.46875
199.06665,441.06665,103.599998,33.472656
208.666672,431.466675,112.799995,33.472656
196.0,441.06665,108.0,33.472656
205.733337,431.06665,113.46666,33.476562
199.06665,442.133331,106.400002,33.476562
206.399994,434.266663,104.666664,33.476562
198.266663,440.133331,116.133339,33.480469
200.666672,432.93335,104.266663,33.480469
203.866669,443.200012,116.666672,33.480469
201.466675,441.333344,102.533333,33.484375
201.866669,435.333313,120.266663,33.488281
197.600006,438.800018,101.466667,33.488281
206.933319,437.733337,121.333328,33.488281
206.800003,443.200012,105.733337,33.488281
201.466675,430.800018,116.800003,33.488281
198.133331,441.466675,105.200005,33.492188
208.266663,432.533325,116.800003,33.492188
204.666672,442.533325,113.46666,33.496094
201.466675,431.866699,105.866669,33.496094
196.933319,440.133331,113.333328,33.496094
206.800003,433.333313,106.666672,33.496094
203.333344,437.333344,119.466667,33.496094
201.466675,439.466675,102.133331,33.503906
196.266663,434.533356,119.733337,33.503906
204.0,440.0,103.199997,33.503906
200.133347,430.666656,115.733337,33.503906
203.333344,443.200012,105.466675,33.507812
197.600006,429.733307,115.600006,33.507812
195.733337,439.199982,112.933334,33.507812
201.066666,438.399994,102.0,33.507812
199.599991,435.466644,119.599998,33.507812
204.799988,440.0,102.933334,33.511719
197.866669,435.466644,119.466667,33.511719
199.733337,441.866699,105.066673,33.515625
199.466675,429.333344,116.933334,33.515625
204.533325,442.93335,106.800003,33.515625
197.46666,430.400024,115.733337,33.515625
203.066681,440.133331,112.399994,33.519531
196.53334,428.133301,108.26667,33.519531
206.399994,443.066681,112.799995,33.527344
196.133331,430.0,109.066666,33.527344
204.533325,440.666656,118.133331,33.53125
194.133331,433.600006,102.266663,33.527344
208.933334,440.800018,118.133331,33.527344
195.733337,434.399994,102.666664,33.527344
210.266663,435.733337,120.0,33.53125
192.53334,438.533325,101.599998,33.53125
208.933334,435.333313,119.733337,33.53125
197.066666,440.266693,103.199997,33.535156
208.0,432.400024,110.666664,33.535156
196.0,440.400024,109.466667,33.535156
203.866669,431.600006,109.866669,33.539062
200.93335,442.133331,110.0,33.539062
206.399994,437.333344,105.466675,33.539062
196.133331,438.800018,114.933327,33.542969
202.800003,434.666687,104.533325,33.542969
203.199997,440.133331,116.133339,33.542969
204.799988,441.199982,103.46666,33.546875
199.466675,434.399994,119.466667,33.546875
203.066681,439.06665,101.599998,33.546875
200.800003,436.933319,119.466667,33.550781
207.46666,442.799988,107.066666,33.554688
198.0,431.199982,115.466675,33.554688
196.133331,439.06665,113.46666,33.554688
201.066666,434.133331,106.133339,33.554688
197.333344,434.533356,118.0,33.558594
204.666672,440.133331,103.599998,33.554688
200.800003,435.733337,119.066666,33.554688
198.399994,437.866669,102.0,33.558594
197.600006,431.199982,114.533325,33.5625
203.199997,442.400024,106.26667,33.5625
200.800003,432.400024,116.133339,33.566406
197.733322,440.266693,105.733337,33.570312
195.066666,431.600006,106.933334,33.566406
204.933334,442.0,112.533333,33.570312
198.399994,432.400024,108.800003,33.570312
197.600006,439.866669,110.533333,33.570312
206.399994,441.600006,105.600006,33.574219
198.0,431.866699,116.0,33.578125
203.333344,441.06665,104.0,33.578125
201.066666,433.466675,117.066666,33.578125
197.066666,435.466644,117.333336,33.582031
203.199997,437.200012,104.666664,33.582031
196.0,436.666687,116.53334,33.582031
204.0,437.466675,103.866661,33.582031
196.933319,432.0,116.133339,33.582031
205.466675,440.93335,106.53334,33.582031
199.866653,432.666656,116.800003,33.582031
200.666672,440.533325,104.266663,33.585938
198.0,431.06665,109.866669,33.589844
205.466675,441.733337,110.800003,33.589844
199.333328,430.666656,110.533333,33.589844
199.733337,440.400024,110.666664,33.59375
193.866669,434.799988,103.333328,33.59375
207.199997,439.733307,116.53334,33.597656
198.266663,434.666687,105.066673,33.597656
200.400009,437.06665,115.466675,33.597656
192.53334,436.666687,102.266663,33.597656
208.0,436.933319,118.133331,33.601562
198.399994,438.666656,103.73333,33.601562
200.93335,434.399994,118.533333,33.601562
194.0,439.466675,107.333336,33.601562
204.799988,434.933319,113.46666,33.605469
203.46666,439.06665,115.733337,33.605469
201.733337,436.133362,106.26667,33.605469
205.866669,436.399994,118.0,33.605469
198.0,438.93335,104.799995,33.609375
201.066666,433.333313,118.26667,33.609375
205.066666,440.666656,105.466675,33.609375
206.0,434.266663,113.333328,33.617188
198.933334,440.533325,109.066666,33.621094
199.333328,432.400024,112.666664,33.621094
206.133331,441.866699,109.733337,33.621094
202.399994,435.733337,106.53334,33.621094
203.46666,438.93335,114.666664,33.625
196.133331,433.600006,105.466675,33.625
208.0,439.733307,116.133339,33.625
199.466675,438.0,103.73333,33.625
207.199997,437.06665,116.800003,33.625
192.666656,435.466644,102.933334,33.625
208.933334,438.0,118.533333,33.628906
202.133331,440.533325,105.600006,33.628906
204.0,434.799988,115.733337,33.628906
193.733337,437.866669,105.066673,33.628906
209.199997,435.600006,116.400002,33.632812
201.200012,440.400024,110.0,33.632812
206.133331,436.533325,108.800003,33.636719
195.066666,437.866669,112.399994,33.636719
203.733337,435.600006,108.133331,33.640625
196.933319,434.666687,115.333336,33.644531
206.53334,438.399994,105.733337,33.640625
197.199997,435.600006,116.26667,33.640625
202.399994,437.733337,104.666664,33.644531
197.600006,431.06665,115.200005,33.644531
205.333328,440.400024,106.0,33.644531
198.533325,434.133331,116.0,33.644531
201.200012,438.93335,104.533325,33.648438
196.0,433.066681,109.733337,33.652344
205.733337,440.93335,110.933334,33.652344
199.199997,434.133331,110.800003,33.652344
198.799988,439.199982,110.0,33.65625
193.733337,435.066681,104.533325,33.65625
204.799988,438.266663,115.333336,33.65625
200.800003,436.799988,106.400002,33.65625
198.266663,434.933319,114.933327,33.660156
195.200012,437.333344,104.399994,33.660156
203.866669,435.600006,116.26667,33.660156
201.333328,439.06665,110.666664,33.664062
203.600006,436.133362,110.666664,33.664062
207.600006,438.266663,115.733337,33.664062
198.266663,436.133362,105.600006,33.664062
201.333328,436.666687,114.533325,33.667969
204.799988,437.599976,107.066666,33.667969
206.53334,437.06665,116.133339,33.667969
198.133331,437.599976,104.533325,33.671875
199.199997,434.799988,115.333336,33.671875
205.066666,439.866669,106.133339,33.675781
205.733337,436.133362,113.199997,33.675781
199.06665,439.333344,108.26667,33.679688
199.333328,432.400024,112.533333,33.679688
206.133331,441.06665,110.133331,33.683594
199.866653,436.0,107.866669,33.683594
205.066666,438.0,114.533325,33.683594
193.866669,435.866669,105.466675,33.683594
206.800003,438.666656,114.799995,33.6875
201.733337,436.799988,105.600006,33.6875
206.933319,437.06665,114.533325,33.6875
193.333344,435.333313,104.933327,33.6875
206.53334,436.799988,115.066673,33.6875
196.399994,437.200012,107.466667,33.6875
207.600006,437.333344,114.133331,33.691406
194.133331,437.06665,106.0,33.695312
194.400009,438.399994,107.333336,33.695312
202.53334,436.399994,115.066673,33.695312
196.800003,435.066681,106.26667,33.699219
208.0,437.200012,115.200005,33.703125
195.466675,435.600006,104.533325,33.703125
204.933334,437.06665,114.133331,33.703125
194.933334,436.533325,106.666672,33.703125
208.133331,437.599976,115.066673,33.703125
194.400009,436.266663,105.066673,33.703125
203.333344,436.933319,114.399994,33.707031
195.200012,436.266663,110.0,33.707031
208.0,438.0,111.466667,33.707031
195.200012,436.933319,110.400002,33.710938
203.600006,437.333344,108.800003,33.707031
194.666672,434.666687,112.533333,33.710938
207.46666,438.266663,110.0,33.710938
196.0,435.333313,113.333328,33.714844
204.933334,436.133362,107.333336,33.71875
194.799988,435.600006,110.800003,33.71875
205.066666,438.399994,107.866669,33.71875
197.333344,434.666687,112.799995,33.71875
204.266663,439.466675,108.933334,33.71875
196.133331,435.333313,112.666664,33.722656
206.0,438.93335,108.933334,33.722656
200.133347,436.399994,112.533333,33.726562
205.200012,438.399994,113.199997,33.726562
196.266663,436.133362,110.0,33.722656
205.599991,436.266663,110.933334,33.726562
203.333344,437.866669,111.599998,33.730469
207.600006,437.466675,113.73333,33.730469
196.666656,435.466644,107.600006,33.730469
202.53334,435.733337,111.73333,33.734375
203.199997,437.200012,107.866669,33.734375
207.333344,438.266663,113.599998,33.734375
194.666672,435.333313,107.600006,33.734375
204.0,437.599976,111.73333,33.734375
197.066666,436.0,110.800003,33.734375
208.0,439.733307,113.199997,33.738281
194.666672,434.933319,108.800003,33.738281
205.066666,439.199982,112.133331,33.742188
199.199997,436.666687,108.800003,33.738281
205.866669,439.599976,112.133331,33.742188
194.666672,435.066681,110.266663,33.742188
207.733322,439.866669,112.666664,33.746094
196.933319,435.200012,110.0,33.746094
204.933334,437.06665,113.599998,33.75
194.400009,439.733307,109.333336,33.75
206.266663,438.533325,111.466667,33.75
198.533325,435.066681,111.73333,33.75
206.666656,438.133301,109.599998,33.75
195.599991,434.799988,110.800003,33.753906
205.200012,437.599976,108.533333,33.753906
201.066666,436.533325,111.599998,33.753906
206.666656,438.133301,110.933334,33.753906
195.333328,438.666656,111.066666,33.757812
205.466675,436.933319,108.533333,33.761719
201.466675,438.93335,112.266663,33.761719
207.46666,437.466675,112.266663,33.761719
197.333344,436.933319,111.73333,33.761719
204.799988,436.133362,111.466667,33.761719
203.333344,439.333344,112.266663,33.761719
206.800003,437.333344,112.133331,33.761719
195.866669,435.333313,110.133331,33.765625
204.666672,436.133362,109.466667,33.765625
201.733337,436.666687,111.866669,33.765625
207.333344,439.466675,112.133331,33.765625
197.333344,434.933319,108.400002,33.765625
203.333344,437.466675,110.666664,33.769531
200.266663,436.0,109.733337,33.769531
206.666656,441.06665,112.666664,33.773438
196.666656,434.799988,110.266663,33.773438
204.666672,440.266693,112.0,33.773438
201.733337,436.133362,109.199997,33.777344
208.933334,439.06665,114.266663,33.777344
194.933334,433.466675,111.199997,33.777344
202.933334,438.800018,111.066666,33.777344
202.800003,436.266663,110.666664,33.78125
204.933334,437.733337,110.800003,33.78125
197.600006,435.066681,110.800003,33.78125
201.733337,436.533325,111.466667,33.78125
204.0,436.933319,110.933334,33.78125
206.266663,436.533325,110.0,33.785156
194.799988,437.333344,112.0,33.785156
203.600006,436.0,109.333336,33.785156
200.400009,436.799988,110.266663,33.785156
205.599991,437.466675,110.800003,33.789062
194.666672,438.133301,110.400002,33.789062
204.666672,436.933319,110.666664,33.792969
199.733337,439.733307,112.0,33.789062
209.06665,434.266663,111.199997,33.789062
195.466675,438.93335,113.866661,33.789062
205.599991,435.333313,108.933334,33.792969
201.200012,440.0,114.266663,33.792969
206.800003,437.333344,110.666664,33.792969
197.866669,435.866669,112.266663,33.796875
202.0,436.133362,109.333336,33.796875
201.733337,437.733337,112.399994,33.796875
206.266663,439.466675,110.133331,33.796875
196.666656,434.0,109.733337,33.800781
203.199997,438.533325,108.933334,33.796875
199.866653,435.733337,113.73333,33.800781
206.266663,441.866699,111.599998,33.804688
195.333328,433.466675,109.733337,33.804688
204.400009,441.333344,111.199997,33.804688
201.333328,434.799988,110.0,33.804688
208.399994,441.600006,113.599998,33.808594
196.0,432.93335,108.800003,33.808594
202.133331,440.400024,112.799995,33.808594
202.666656,435.066681,110.400002,33.808594
209.06665,436.933319,113.866661,33.808594
195.866669,435.600006,110.0,33.8125
203.333344,437.599976,112.799995,33.808594
200.666672,436.533325,108.933334,33.8125
206.53334,436.399994,112.0,33.8125
206.399994,442.400024,113.46666,33.8125
195.466675,432.266663,109.466667,33.8125
202.399994,441.600006,112.0,33.8125
193.600006,434.133331,107.466667,33.8125
209.466675,438.399994,115.466675,33.816406
195.333328,434.933319,109.466667,33.820312
201.733337,439.333344,113.599998,33.816406
197.199997,435.333313,106.53334,33.820312
208.533325,437.200012,114.133331,33.820312
195.866669,436.133362,106.53334,33.820312
202.666656,436.266663,113.46666,33.820312
194.533325,438.666656,108.26667,33.820312
205.466675,435.200012,112.133331,33.820312
194.0,440.266693,109.066666,33.820312
203.46666,434.0,109.199997,33.824219
195.733337,439.733307,111.866669,33.824219
206.666656,434.0,110.800003,33.824219
197.733322,439.333344,112.133331,33.824219
199.199997,433.333313,109.066666,33.824219
196.53334,436.399994,113.866661,33.824219
204.933334,436.533325,107.333336,33.828125
200.93335,437.866669,114.666664,33.828125
199.733337,435.066681,104.133331,33.828125
198.0,434.666687,111.199997,33.832031
204.533325,439.733307,106.933334,33.832031
202.0,434.933319,113.866661,33.832031
196.933319,437.200012,106.53334,33.832031
194.933334,431.199982,110.400002,33.832031
205.733337,442.799988,109.866669,33.835938
200.0,432.666656,111.199997,33.832031
198.133331,440.533325,108.400002,33.832031
193.46666,433.066681,107.066666,33.835938
207.199997,441.600006,112.266663,33.835938
198.0,432.799988,109.066666,33.835938
199.06665,440.800018,112.799995,33.835938
194.0,434.533356,105.600006,33.839844
204.533325,438.266663,114.799995,33.839844
198.799988,435.066681,106.133339,33.839844
199.06665,437.200012,115.066673,33.84375
194.0,439.06665,106.26667,33.839844
198.399994,433.466675,110.533333,33.84375
199.599991,440.400024,110.533333,33.84375
206.266663,434.933319,108.533333,33.84375
204.0,437.06665,115.200005,33.84375
199.733337,435.866669,106.133339,33.84375
198.266663,436.0,115.600006,33.84375
204.799988,437.200012,107.066666,33.84375
204.799988,435.466644,114.266663,33.847656
199.333328,440.266693,106.53334,33.847656
198.799988,434.0,110.800003,33.847656
203.333344,439.333344,108.800003,33.847656
203.199997,432.400024,110.533333,33.847656
201.333328,442.666656,109.866669,33.847656
196.266663,430.133331,110.133331,33.847656
206.800003,443.333313,111.866669,33.851562
202.0,433.333313,106.400002,33.851562
203.46666,441.06665,114.799995,33.851562
194.933334,431.06665,106.400002,33.851562
208.266663,440.533325,115.866669,33.851562
200.93335,436.799988,101.599998,33.851562
206.666656,437.599976,116.53334,33.851562
192.133331,434.533356,102.666664,33.851562
208.0,437.866669,117.200005,33.855469
196.53334,440.266693,105.733337,33.855469
206.666656,433.600006,114.266663,33.855469
192.399994,438.93335,105.200005,33.859375
205.333328,433.333313,113.333328,33.855469
193.333344,440.800018,109.333336,33.855469
207.333344,431.733337,109.066666,33.855469
195.333328,441.333344,113.333328,33.855469
201.200012,431.466675,106.53334,33.855469
196.266663,435.733337,115.066673,33.855469
204.933334,436.133362,104.666664,33.855469
198.666672,437.200012,116.133339,33.859375
199.466675,434.666687,102.933334,33.859375
196.133331,431.466675,113.866661,33.859375
204.400009,439.333344,105.600006,33.859375
196.666656,434.0,116.400002,33.859375
201.333328,438.0,101.599998,33.859375
196.399994,429.866669,112.533333,33.859375
204.799988,442.799988,106.800003,33.863281
197.46666,430.666656,113.199997,33.863281
200.533325,441.600006,105.600006,33.863281
194.799988,429.599976,106.0,33.863281
206.53334,443.200012,113.333328,33.863281
194.666672,430.533325,108.133331,33.863281
203.46666,442.133331,107.600006,33.863281
192.666656,433.066681,102.266663,33.863281
207.733322,440.0,116.400002,33.863281
196.933319,433.600006,104.399994,33.863281
200.93335,438.266663,115.066673,33.863281
192.800003,437.866669,102.666664,33.867188
194.799988,428.666656,108.533333,33.867188
204.0,443.066681,110.533333,33.867188
198.666672,430.666656,111.066666,33.867188
208.933334,439.733307,118.133331,33.863281
191.866669,432.666656,103.199997,33.867188
205.200012,441.466675,115.333336,33.867188
198.533325,431.866699,105.733337,33.867188
211.200012,437.733337,117.866669,33.867188
193.333344,434.799988,100.666664,33.871094
204.266663,436.933319,117.733337,33.867188
198.0,438.266663,102.933334,33.871094
208.266663,431.333344,115.066673,33.867188
191.866669,440.800018,104.533325,33.871094
205.066666,432.0,112.666664,33.867188
202.666656,441.733337,105.466675,33.871094
206.133331,431.866699,108.800003,33.871094
197.733322,433.600006,100.533333,33.871094
205.733337,440.0,119.199997,33.875
202.266678,441.333344,102.933334,33.875
202.800003,434.533356,118.0,33.875
193.866669,437.333344,102.666664,33.871094
206.666656,436.799988,118.133331,33.875
202.53334,442.400024,106.0,33.875
201.866669,430.800018,114.799995,33.871094
198.0,441.199982,102.399994,33.875
207.600006,431.06665,117.600006,33.871094
204.799988,442.133331,110.266663,33.875
198.0,429.466675,109.599998,33.875
198.266663,441.06665,109.066666,33.875
206.133331,431.06665,110.266663,33.875
205.200012,441.06665,116.26667,33.875
197.46666,432.133331,104.266663,33.875
198.933334,439.599976,114.933327,33.875
202.933334,433.733337,104.799995,33.875
210.400009,437.333344,118.133331,33.878906
192.800003,434.533356,104.399994,33.875
200.666672,438.0,117.466667,33.878906
202.800003,437.06665,103.066666,33.875
206.53334,433.600006,117.066666,33.878906
197.199997,440.800018,104.799995,33.878906
200.133347,431.333344,117.066666,33.878906
204.133331,442.133331,105.333336,33.878906
208.266663,430.400024,112.933334,33.875
194.666672,441.199982,110.0,33.875
203.333344,429.866669,110.0,33.878906
203.733337,443.066681,107.600006,33.878906
202.933334,432.666656,105.200005,33.878906
197.733322,440.800018,112.933334,33.878906
198.133331,430.93335,106.0,33.878906
205.333328,443.200012,114.133331,33.878906
202.666656,437.333344,102.133331,33.878906
197.866669,438.666656,119.599998,33.878906
190.93335,436.933319,98.666672,33.882812
207.333344,439.06665,122.0,33.878906
200.266663,441.199982,103.73333,33.882812
204.400009,433.333313,118.0,33.882812
194.666672,438.533325,102.933334,33.882812
208.666672,435.466644,119.333336,33.882812
201.333328,442.93335,108.133331,33.882812
203.333344,430.533325,112.666664,33.882812
196.53334,440.533325,107.200005,33.882812
208.533325,430.266693,115.200005,33.882812
203.600006,441.199982,111.599998,33.882812
202.133331,432.400024,105.200005,33.882812
195.333328,439.199982,112.799995,33.882812
206.133331,432.666656,107.200005,33.882812
201.333328,436.533325,117.866669,33.882812
202.666656,438.266663,102.533333,33.882812
196.53334,435.333313,117.200005,33.882812
203.600006,437.333344,103.066666,33.882812
202.0,432.266663,114.399994,33.886719
201.466675,440.400024,108.0,33.886719
196.399994,430.93335,116.933334,33.882812
203.46666,441.733337,104.133331,33.882812
197.733322,428.533325,109.599998,33.886719
206.933319,442.799988,110.933334,33.882812
195.866669,427.733337,108.800003,33.886719
203.46666,443.066681,109.333336,33.886719
191.466675,433.733337,98.933334,33.882812
202.800003,436.133362,116.666672,33.882812
199.866653,438.266663,105.733337,33.882812
196.399994,436.0,116.933334,33.886719
199.199997,441.600006,105.466675,33.886719
201.466675,431.199982,117.200005,33.886719
198.933334,441.600006,103.866661,33.886719
195.733337,430.533325,117.333336,33.886719
195.200012,441.06665,108.26667,33.886719
202.133331,429.733307,112.266663,33.886719
200.400009,442.133331,112.0,33.886719
196.53334,429.06665,109.733337,33.886719
198.799988,440.400024,116.26667,33.890625
196.0,431.600006,102.933334,33.886719
207.600006,441.866699,116.53334,33.886719
192.266678,431.06665,103.066666,33.886719
202.399994,436.0,119.466667,33.886719
192.399994,439.599976,103.066666,33.886719
204.0,433.200012,118.0,33.886719
194.266663,440.666656,105.333336,33.886719
207.733322,429.866669,114.799995,33.890625
192.399994,441.199982,106.133339,33.886719
204.400009,430.0,112.399994,33.886719
197.066666,441.733337,106.933334,33.890625
204.400009,433.733337,104.666664,33.890625
197.46666,439.199982,114.533325,33.890625
199.733337,432.533325,104.399994,33.886719
204.666672,442.0,115.600006,33.890625
204.666672,439.06665,102.266663,33.890625
198.799988,435.600006,121.599998,33.890625
200.133347,437.333344,98.800003,33.890625
204.266663,438.93335,119.199997,33.890625
203.46666,442.400024,104.666664,33.890625
197.733322,431.866699,119.066666,33.890625
198.799988,440.666656,103.599998,33.890625
204.933334,434.266663,119.866669,33.890625
204.799988,442.93335,109.199997,33.890625
196.0,429.733307,113.46666,33.894531
203.866669,441.466675,104.933327,33.890625
196.266663,431.06665,119.466667,33.890625
203.600006,442.533325,109.733337,33.890625
195.466675,427.466675,109.199997,33.890625
205.066666,442.93335,109.866669,33.890625
199.866653,429.06665,110.666664,33.894531
207.46666,441.466675,117.333336,33.894531
193.333344,432.133331,102.0,33.894531
207.46666,441.06665,114.933327,33.894531
194.933334,431.06665,106.133339,33.894531
207.333344,438.800018,120.133331,33.894531
192.133331,435.600006,100.666664,33.890625
208.266663,438.800018,120.666664,33.894531
196.666656,436.799988,101.466667,33.890625
210.533325,433.866638,118.933334,33.894531
192.0,439.333344,103.066666,33.894531
206.266663,433.866638,118.933334,33.894531
194.133331,440.800018,105.466675,33.894531
207.066666,430.266693,113.599998,33.890625
191.466675,441.333344,105.200005,33.894531
206.0,431.06665,112.133331,33.890625
198.133331,441.466675,108.0,33.894531
205.866669,433.866638,104.933327,33.890625
195.733337,438.93335,114.933327,33.894531
202.0,433.066681,103.46666,33.894531
202.133331,440.93335,114.933327,33.894531
204.533325,437.733337,104.399994,33.894531
195.866669,438.266663,117.066666,33.894531
202.53334,437.466675,99.466667,33.894531
202.133331,437.733337,119.733337,33.894531
206.666656,442.266663,104.266663,33.894531
198.266663,431.466675,117.600006,33.894531
199.199997,440.93335,101.73333,33.894531
202.0,433.733337,119.066666,33.894531
204.400009,443.200012,108.133331,33.894531
194.666672,430.400024,111.73333,33.894531
203.333344,441.466675,106.133339,33.898438
199.866653,430.400024,116.800003,33.894531
207.066666,442.133331,114.666664,33.894531
195.733337,430.666656,104.533325,33.898438
202.666656,441.733337,112.933334,33.894531
201.866669,431.466675,107.200005,33.894531
206.53334,436.666687,119.866669,33.898438
194.0,435.333313,100.800003,33.894531
204.400009,437.599976,116.933334,33.894531
199.466675,436.533325,104.266663,33.894531
207.733322,433.066681,118.26667,33.894531
195.200012,439.733307,103.333328,33.894531
198.399994,431.733337,118.0,33.894531
199.333328,440.533325,102.533333,33.894531
207.199997,431.600006,114.799995,33.894531
194.666672,439.733307,105.866669,33.894531
200.800003,430.400024,114.133331,33.894531
201.200012,441.199982,109.466667,33.898438
205.866669,432.133331,104.799995,33.894531
197.46666,440.133331,116.0,33.894531
196.933319,430.266693,105.200005,33.898438
205.733337,442.0,113.066666,33.894531
200.133347,437.333344,101.466667,33.898438
200.800003,437.06665,118.800003,33.898438
194.799988,433.333313,100.533333,33.898438
206.933319,438.93335,117.866669,33.898438
204.799988,439.866669,101.599998,33.894531
200.266663,433.466675,121.333328,33.894531
194.933334,438.533325,99.333336,33.898438
208.399994,435.333313,119.599998,33.894531
199.333328,439.333344,107.466667,33.894531
204.533325,431.333344,113.066666,33.898438
193.199997,438.666656,106.400002,33.898438
207.333344,432.0,113.333328,33.898438
198.799988,438.533325,114.666664,33.898438
201.066666,432.400024,108.933334,33.894531
194.533325,439.199982,110.133331,33.898438
206.666656,432.266663,107.600006,33.898438
200.533325,436.666687,117.333336,33.894531
202.53334,436.666687,101.73333,33.898438
196.399994,435.733337,116.666672,33.898438
204.533325,436.533325,103.73333,33.894531
196.266663,431.600006,116.53334,33.898438
203.866669,441.06665,105.466675,33.898438
195.599991,432.533325,115.866669,33.898438
203.866669,440.0,102.799995,33.898438
195.866669,430.666656,106.666672,33.898438
205.733337,441.466675,110.133331,33.898438
197.199997,429.06665,108.133331,33.898438
199.599991,440.400024,107.600006,33.898438
192.399994,432.533325,102.533333,33.898438
205.599991,439.06665,116.400002,33.898438
196.666656,433.866638,103.599998,33.898438
199.333328,437.599976,114.533325,33.898438
191.066666,438.0,100.533333,33.898438
208.666672,435.333313,117.866669,33.898438
194.666672,437.333344,103.599998,33.898438
200.0,435.866669,117.200005,33.898438
189.866653,438.399994,103.73333,33.898438
205.333328,433.200012,114.933327,33.898438
199.466675,440.133331,105.733337,33.898438
198.0,431.06665,114.933327,33.898438
192.933334,439.199982,111.199997,33.898438
203.066681,431.600006,104.933327,33.898438
200.400009,439.733307,114.0,33.898438
192.53334,433.200012,104.933327,33.902344
201.733337,435.866669,117.066666,33.898438
194.799988,435.066681,102.266663,33.898438
207.066666,437.733337,116.933334,33.898438
191.466675,434.399994,102.0,33.898438
200.800003,433.200012,117.066666,33.898438
197.066666,438.399994,100.666664,33.894531
207.866669,434.533356,120.533333,33.898438
191.200012,437.733337,100.933334,33.898438
205.066666,430.800018,112.799995,33.898438
194.933334,438.399994,105.866669,33.898438
206.666656,434.266663,115.333336,33.898438
191.866669,437.866669,104.0,33.898438
198.933334,432.666656,108.400002,33.898438
196.800003,442.533325,111.466667,33.898438
206.0,434.533356,109.866669,33.898438
192.800003,438.800018,108.400002,33.902344
197.46666,435.333313,106.26667,33.898438
196.933319,435.333313,114.266663,33.898438
205.599991,436.799988,105.466675,33.898438
195.333328,435.600006,114.399994,33.898438
198.0,437.200012,102.799995,33.898438
198.399994,433.733337,116.666672,33.898438
203.866669,438.93335,104.799995,33.898438
195.066666,433.333313,114.933327,33.898438
200.0,439.199982,109.066666,33.898438
195.733337,432.400024,109.599998,33.898438
203.733337,439.599976,108.133331,33.898438
195.866669,432.266663,113.73333,33.902344
203.46666,439.333344,112.266663,33.898438
194.799988,431.733337,106.666672,33.898438
195.599991,433.466675,114.933327,33.898438
203.866669,438.0,103.333328,33.898438
197.866669,433.200012,110.133331,33.898438
202.0,439.06665,108.533333,33.898438
195.066666,433.466675,112.533333,33.898438
204.799988,437.866669,104.933327,33.898438
196.399994,432.533325,109.599998,33.898438
205.200012,440.266693,111.199997,33.898438
193.733337,431.866699,110.0,33.898438
203.333344,440.533325,107.866669,33.898438
203.333344,434.533356,107.466667,33.898438
201.466675,438.800018,112.0,33.898438
196.0,433.866638,105.600006,33.898438
206.666656,438.399994,113.866661,33.898438
198.799988,435.333313,104.533325,33.898438
201.600006,436.799988,114.799995,33.898438
194.799988,433.733337,104.533325,33.898438
205.466675,437.599976,114.666664,33.898438
198.533325,436.799988,103.599998,33.898438
204.533325,435.466644,115.866669,33.898438
191.066666,435.733337,103.199997,33.898438
208.266663,434.666687,117.733337,33.898438
200.133347,438.133301,103.73333,33.898438
204.799988,434.266663,116.400002,33.898438
193.066681,436.399994,104.266663,33.898438
206.53334,435.733337,114.933327,33.898438
199.599991,437.733337,109.599998,33.898438
203.46666,435.333313,110.0,33.898438
193.733337,435.733337,107.466667,33.898438
207.333344,435.600006,110.400002,33.898438
201.066666,435.733337,110.0,33.898438
203.866669,435.466644,109.599998,33.898438
193.733337,435.600006,109.333336,33.898438
206.53334,436.666687,108.0,33.898438
199.599991,434.266663,113.066666,33.898438
203.46666,438.133301,104.799995,33.898438
195.866669,432.93335,112.533333,33.894531
206.266663,436.533325,104.666664,33.894531
200.800003,433.866638,112.533333,33.898438
202.399994,436.933319,107.600006,33.898438
195.866669,434.0,110.800003,33.898438
206.800003,436.533325,105.466675,33.898438
201.333328,433.866638,110.400002,33.898438
205.066666,438.93335,109.066666,33.898438
195.866669,433.200012,109.733337,33.898438
204.666672,438.133301,107.866669,33.898438
196.800003,432.133331,106.800003,33.898438
205.866669,437.200012,112.0,33.898438
194.133331,434.133331,107.066666,33.898438
204.933334,435.466644,109.733337,33.898438
193.866669,434.666687,101.066666,33.898438
207.866669,436.666687,113.066666,33.898438
195.466675,433.600006,104.0,33.898438
203.333344,434.533356,112.0,33.898438
194.400009,434.0,103.599998,33.898438
208.133331,435.066681,111.466667,33.898438
194.400009,433.866638,103.333328,33.898438
206.666656,434.133331,109.866669,33.898438
197.066666,435.466644,102.533333,33.894531
208.399994,433.733337,112.133331,33.898438
193.733337,434.133331,105.066673,33.898438
202.800003,434.933319,110.133331,33.898438
194.400009,432.799988,108.0,33.898438
206.666656,435.200012,108.133331,33.898438
195.466675,433.066681,108.800003,33.898438
202.266678,434.0,107.333336,33.898438
194.933334,432.133331,107.066666,33.898438
207.733322,433.733337,105.733337,33.894531
195.200012,432.533325,111.599998,33.898438
201.733337,434.0,105.200005,33.898438
195.066666,430.93335,108.800003,33.898438
205.333328,435.200012,104.666664,33.898438
198.266663,432.0,110.0,33.898438
198.799988,432.533325,102.133331,33.898438
192.800003,432.93335,107.866669,33.898438
204.666672,434.666687,105.066673,33.898438
200.266663,434.133331,112.666664,33.898438
195.200012,434.266663,102.799995,33.898438
196.800003,433.466675,107.066666,33.898438
200.93335,434.399994,108.933334,33.894531
203.733337,435.600006,109.066666,33.898438
194.533325,432.266663,107.466667,33.898438
198.0,433.733337,105.333336,33.898438
198.933334,432.400024,110.666664,33.898438
203.600006,433.733337,109.333336,33.898438
193.866669,433.200012,107.733337,33.898438
196.800003,434.933319,108.26667,33.894531
199.599991,434.266663,110.800003,33.898438
202.666656,436.133362,106.26667,33.898438
195.066666,432.533325,109.333336,33.898438
198.266663,434.399994,107.200005,33.898438
199.199997,434.933319,109.199997,33.898438
204.799988,436.399994,108.666672,33.898438
194.266663,435.733337,107.733337,33.894531
196.399994,434.0,111.333328,33.898438
200.93335,435.333313,106.666672,33.894531
205.599991,435.333313,109.866669,33.898438
193.866669,433.866638,106.933334,33.898438
200.800003,433.466675,109.199997,33.898438
196.133331,433.733337,106.26667,33.898438
205.866669,434.799988,109.466667,33.894531
195.066666,432.266663,105.733337,33.894531
199.599991,434.533356,111.333328,33.894531
196.53334,434.933319,101.466667,33.898438
206.666656,434.399994,111.066666,33.898438
194.666672,432.0,105.466675,33.898438
204.266663,436.933319,109.066666,33.898438
193.600006,431.333344,105.866669,33.898438
206.666656,437.200012,109.466667,33.898438
192.800003,431.466675,104.933327,33.894531
201.866669,436.133362,108.533333,33.894531
194.266663,432.0,104.799995,33.898438
206.133331,435.466644,110.400002,33.898438
192.399994,432.133331,107.733337,33.898438
205.333328,434.799988,107.466667,33.898438
192.800003,430.533325,106.400002,33.898438
204.400009,435.066681,108.0,33.894531
198.266663,431.600006,108.133331,33.894531
204.400009,432.799988,106.53334,33.894531
193.46666,432.533325,107.200005,33.894531
205.333328,433.333313,105.466675,33.898438
196.399994,434.533356,109.599998,33.894531
202.133331,432.93335,108.133331,33.894531
196.0,434.933319,109.199997,33.898438
196.399994,432.266663,107.333336,33.898438
201.733337,437.06665,108.533333,33.894531
201.333328,433.333313,107.600006,33.898438
197.066666,433.466675,108.400002,33.898438
193.733337,430.400024,106.133339,33.894531
202.666656,435.866669,109.333336,33.894531
201.600006,433.466675,105.066673,33.894531
198.799988,432.533325,110.133331,33.894531
192.0,431.06665,105.333336,33.894531
203.866669,434.133331,107.600006,33.898438
196.666656,435.200012,107.733337,33.898438
200.133347,433.466675,106.133339,33.894531
191.600006,433.600006,106.53334,33.898438
202.800003,433.866638,107.866669,33.894531
203.733337,436.933319,107.200005,33.894531
195.200012,431.733337,109.333336,33.898438
192.933334,436.266663,105.066673,33.894531
202.53334,431.866699,108.933334,33.894531
196.53334,435.333313,108.400002,33.898438
196.933319,432.799988,107.733337,33.894531
191.600006,433.866638,108.533333,33.894531
202.133331,433.600006,108.800003,33.894531
195.200012,432.799988,107.733337,33.894531
198.133331,433.200012,110.266663,33.894531
189.733337,432.533325,104.933327,33.894531
201.200012,432.93335,107.333336,33.894531
191.333328,431.466675,106.800003,33.894531
200.133347,437.466675,108.0,33.894531
188.933334,430.133331,106.53334,33.894531
198.266663,437.333344,107.733337,33.894531
186.266663,430.533325,106.53334,33.894531
200.93335,438.800018,111.066666,33.894531
192.666656,431.333344,107.866669,33.894531
195.333328,437.599976,107.600006,33.894531
187.066666,433.066681,104.399994,33.894531
198.399994,436.666687,111.066666,33.894531
194.0,433.333313,108.26667,33.894531
192.53334,434.266663,109.733337,33.894531
191.066666,433.733337,104.533325,33.894531
198.266663,434.666687,109.599998,33.894531
193.733337,435.733337,107.600006,33.894531
190.93335,431.733337,109.733337,33.894531
187.333344,438.266663,108.133331,33.894531
199.199997,431.600006,107.733337,33.894531
193.066681,438.266663,111.466667,33.894531
191.600006,431.600006,108.800003,33.894531
187.866669,437.733337,110.533333,33.894531
194.666672,435.066681,108.666672,33.894531
197.600006,439.866669,111.73333,33.894531
188.133331,431.06665,106.933334,33.894531
191.066666,435.733337,113.866661,33.894531
192.933334,434.0,104.799995,33.894531
198.799988,436.799988,116.133339,33.894531
186.666656,433.866638,105.066673,33.894531
195.866669,434.399994,111.199997,33.890625
189.599991,435.866669,106.26667,33.894531
201.200012,435.866669,112.533333,33.894531
187.46666,435.600006,106.666672,33.894531
195.066666,432.666656,110.266663,33.894531
188.933334,438.399994,109.733337,33.890625
200.93335,433.333313,113.066666,33.894531
187.600006,439.733307,109.333336,33.890625
200.800003,434.133331,109.199997,33.890625
189.599991,438.133301,112.799995,33.894531
199.466675,435.066681,110.0,33.894531
191.600006,439.466675,112.933334,33.890625
196.666656,436.533325,108.133331,33.894531
189.466675,435.333313,112.933334,33.890625
198.533325,436.533325,108.133331,33.890625
188.933334,437.733337,114.533325,33.890625
193.866669,437.599976,110.0,33.890625
191.866669,435.200012,110.400002,33.894531
199.199997,438.533325,107.866669,33.890625
191.600006,434.799988,113.866661,33.890625
198.266663,442.533325,110.533333,33.890625
189.599991,432.266663,111.199997,33.894531
199.733337,442.666656,111.199997,33.890625
192.53334,433.333313,112.399994,33.890625
200.400009,442.0,116.800003,33.890625
188.666672,433.466675,106.400002,33.894531
202.266678,442.533325,114.133331,33.890625
192.0,433.066681,110.800003,33.890625
201.866669,441.199982,116.133339,33.890625
188.0,434.133331,107.333336,33.890625
201.066666,441.600006,116.133339,33.894531
193.199997,435.466644,108.400002,33.890625
202.266678,439.199982,116.133339,33.890625
186.933319,438.133301,105.333336,33.894531
203.333344,438.0,115.600006,33.890625
189.333328,437.466675,108.666672,33.890625
201.200012,436.799988,114.933327,33.890625
187.866669,440.266693,107.733337,33.890625
200.666672,436.933319,115.333336,33.890625
190.0,439.06665,107.066666,33.890625
202.53334,435.733337,112.799995,33.890625
188.933334,441.333344,109.599998,33.890625
201.733337,434.799988,115.466675,33.886719
187.733322,442.93335,110.0,33.890625
198.799988,435.200012,112.266663,33.890625
190.266663,440.93335,113.73333,33.890625
198.133331,435.866669,109.466667,33.890625
194.533325,443.200012,115.600006,33.890625
199.866653,439.333344,108.0,33.890625
190.800003,438.133301,116.26667,33.890625
199.333328,438.533325,108.533333,33.890625
192.399994,440.800018,119.066666,33.890625
198.399994,441.199982,110.133331,33.890625
190.133347,436.533325,114.533325,33.890625
197.866669,442.0,107.066666,33.890625
196.800003,437.200012,117.333336,33.890625
203.199997,445.733337,111.333328,33.894531
191.600006,432.666656,113.333328,33.890625
197.199997,444.533356,109.733337,33.890625
198.133331,434.266663,113.73333,33.890625
203.333344,443.600006,117.200005,33.890625
189.599991,436.0,109.866669,33.890625
200.533325,444.399994,113.066666,33.890625
196.666656,434.266663,110.400002,33.890625
202.800003,442.400024,118.533333,33.890625
190.266663,436.0,105.733337,33.894531
197.066666,440.666656,117.333336,33.890625
198.0,437.733337,106.666672,33.890625
202.399994,437.733337,117.600006,33.890625
188.266663,440.800018,108.26667,33.890625
197.866669,436.533325,114.266663,33.890625
198.399994,441.06665,108.933334,33.890625
194.666672,434.0,112.266663,33.890625
197.46666,445.333313,111.199997,33.890625
191.466675,432.0,111.466667,33.890625
199.866653,446.133362,111.73333,33.890625
194.933334,434.933319,107.066666,33.890625
201.600006,443.466675,115.466675,33.890625
187.866669,434.799988,104.666664,33.890625
202.666656,443.600006,116.800003,33.890625
191.466675,439.599976,102.0,33.894531
203.333344,439.733307,119.599998,33.890625
188.666672,437.866669,105.066673,33.890625
199.599991,440.0,118.800003,33.890625
199.06665,444.533356,116.0,33.890625
190.133347,432.266663,107.333336,33.890625
202.266678,445.200012,116.666672,33.890625
189.06665,433.866638,108.133331,33.890625
203.733337,439.866669,122.399994,33.886719
188.666672,436.533325,102.133331,33.890625
203.733337,443.466675,118.800003,33.890625
189.466675,434.666687,103.73333,33.890625
201.733337,437.466675,119.333336,33.890625
187.866669,440.133331,104.399994,33.886719
203.46666,437.866669,119.466667,33.890625
189.599991,440.0,104.799995,33.890625
200.266663,433.466675,117.866669,33.890625
189.599991,443.600006,105.066673,33.890625
204.133331,433.600006,117.733337,33.890625
190.400009,442.799988,108.0,33.890625
199.466675,434.133331,111.066666,33.886719
189.06665,442.93335,112.533333,33.886719
200.93335,434.133331,111.333328,33.890625
192.133331,443.866638,112.266663,33.886719
199.466675,438.0,106.0,33.890625
190.400009,441.199982,116.53334,33.886719
201.466675,435.866669,107.333336,33.890625
192.666656,442.799988,119.466667,33.890625
198.799988,443.066681,106.0,33.886719
191.866669,436.933319,118.666672,33.886719
197.46666,442.0,104.399994,33.886719
196.933319,438.399994,120.933334,33.890625
200.266663,445.733337,109.066666,33.886719
192.53334,432.0,116.666672,33.886719
198.133331,444.399994,105.733337,33.886719
197.199997,433.466675,121.066666,33.890625
202.133331,444.533356,115.466675,33.886719
192.133331,431.733337,110.266663,33.886719
194.799988,444.266663,113.73333,33.886719
198.933334,431.199982,112.399994,33.886719
204.933334,443.866638,119.466667,33.886719
189.466675,433.333313,106.0,33.886719
197.733322,443.066681,117.466667,33.886719
197.333344,435.600006,106.666672,33.886719
203.46666,440.133331,123.199997,33.886719
187.199997,439.06665,102.933334,33.886719
200.400009,441.333344,120.666664,33.886719
195.200012,438.399994,103.73333,33.890625
203.333344,436.133362,120.266663,33.886719
189.333328,441.866699,105.200005,33.886719
198.133331,435.066681,118.933334,33.886719
196.399994,444.133331,106.400002,33.886719
203.199997,432.0,115.200005,33.886719
189.466675,444.266663,111.066666,33.886719
201.200012,432.799988,114.0,33.886719
194.799988,444.133331,110.533333,33.886719
203.199997,434.399994,108.933334,33.886719
192.0,443.333313,114.266663,33.886719
195.066666,432.666656,108.533333,33.886719
199.866653,445.600006,114.399994,33.886719
199.199997,438.266663,104.799995,33.886719
193.333344,442.266663,121.599998,33.886719
193.600006,436.266663,101.466667,33.886719
198.133331,443.466675,120.933334,33.886719
197.600006,442.400024,103.599998,33.886719
196.53334,438.266663,121.73333,33.886719
190.800003,440.0,104.133331,33.886719
201.866669,441.199982,121.199997,33.886719
192.399994,443.600006,110.0,33.886719
202.800003,433.733337,115.333336,33.886719
188.266663,442.533325,107.733337,33.882812
204.133331,432.799988,115.600006,33.886719
197.333344,443.600006,112.399994,33.882812
201.333328,435.066681,109.733337,33.886719
189.866653,442.266663,113.73333,33.886719
199.599991,434.133331,108.133331,33.886719
191.333328,438.0,120.266663,33.886719
199.599991,440.400024,103.333328,33.886719
194.266663,439.06665,120.533333,33.886719
193.600006,439.06665,104.0,33.886719
191.733337,434.133331,117.200005,33.886719
199.866653,443.466675,105.333336,33.886719
196.666656,434.266663,120.533333,33.886719
191.600006,441.600006,104.799995,33.882812
191.466675,430.800018,112.266663,33.882812
197.866669,444.666687,110.800003,33.886719
197.600006,432.0,112.933334,33.882812
190.266663,443.066681,109.733337,33.886719
190.266663,434.799988,105.733337,33.882812
199.466675,443.200012,115.200005,33.882812
194.799988,434.266663,108.26667,33.882812
193.199997,443.333313,111.866669,33.882812
188.266663,436.266663,102.666664,33.886719
200.133347,442.133331,120.0,33.882812
194.266663,438.399994,103.73333,33.882812
193.199997,439.733307,119.599998,33.886719
189.733337,441.866699,104.666664,33.886719
197.46666,435.733337,121.199997,33.882812
195.866669,443.600006,107.733337,33.882812
192.933334,435.200012,117.600006,33.882812
190.0,442.93335,108.26667,33.882812
196.800003,432.93335,116.0,33.882812
197.46666,444.933319,108.800003,33.882812
192.0,431.199982,116.53334,33.882812
194.533325,442.666656,113.333328,33.882812
196.0,432.666656,109.199997,33.882812
199.333328,444.799988,113.73333,33.882812
190.800003,432.133331,107.600006,33.886719
193.333344,441.466675,121.466667,33.882812
192.933334,436.399994,104.799995,33.882812
202.399994,443.466675,120.533333,33.882812
192.933334,439.733307,103.599998,33.882812
204.400009,435.866669,119.866669,33.882812
186.933319,442.133331,106.0,33.882812
202.399994,436.533325,120.933334,33.882812
191.866669,442.666656,106.26667,33.882812
202.266678,433.200012,116.400002,33.882812
187.600006,441.866699,107.866669,33.882812
202.266678,434.399994,116.0,33.882812
192.933334,443.466675,110.133331,33.882812
200.533325,433.200012,109.733337,33.882812
189.866653,441.466675,113.066666,33.882812
200.666672,434.799988,108.933334,33.882812
194.666672,442.799988,113.866661,33.882812
199.599991,439.06665,105.200005,33.878906
188.933334,440.93335,117.466667,33.878906
199.466675,437.333344,104.799995,33.882812
191.066666,441.600006,120.800003,33.882812
198.933334,444.133331,104.933327,33.882812
191.866669,436.133362,120.933334,33.882812
195.466675,441.733337,104.266663,33.882812
197.866669,438.266663,121.466667,33.882812
200.400009,443.466675,108.800003,33.882812
193.866669,432.533325,117.733337,33.882812
197.600006,443.333313,106.133339,33.882812
198.533325,434.666687,121.866669,33.882812
201.600006,444.799988,113.46666,33.882812
193.199997,432.799988,112.0,33.882812
194.400009,442.93335,111.866669,33.882812
200.93335,434.799988,113.333328,33.878906
201.866669,442.666656,118.533333,33.878906
192.266678,435.333313,107.066666,33.882812
195.733337,441.466675,117.733337,33.882812
194.133331,434.933319,111.466667,33.878906
204.266663,439.333344,122.0,33.882812
188.666672,438.800018,104.133331,33.882812
196.666656,439.06665,119.866669,33.882812
198.133331,439.599976,105.733337,33.878906
201.466675,437.333344,120.400002,33.878906
191.466675,441.600006,105.733337,33.882812
196.266663,435.600006,119.866669,33.878906
198.133331,443.600006,106.400002,33.878906
205.333328,434.666687,115.866669,33.878906
186.53334,442.799988,109.066666,33.878906
199.199997,435.333313,115.200005,33.882812
195.733337,443.733337,108.0,33.878906
201.066666,436.133362,111.466667,33.878906
193.199997,441.866699,112.266663,33.878906
194.666672,433.733337,111.199997,33.882812
200.0,444.399994,113.599998,33.878906
198.133331,438.800018,106.133339,33.882812
194.266663,441.06665,121.199997,33.878906
193.46666,436.799988,103.199997,33.882812
202.0,441.466675,119.333336,33.878906
197.46666,441.333344,104.933327,33.878906
196.933319,438.800018,120.533333,33.878906
188.799988,438.800018,104.799995,33.882812
202.399994,440.533325,121.599998,33.878906
197.600006,443.066681,107.066666,33.878906
197.46666,436.133362,119.866669,33.878906
191.066666,443.466675,102.666664,33.882812
203.199997,438.266663,123.066666,33.878906
195.599991,443.600006,110.0,33.878906
197.333344,435.466644,114.533325,33.882812
201.466675,441.199982,119.733337,33.882812
188.0,436.799988,104.0,33.882812
197.600006,436.799988,119.733337,33.878906
190.93335,440.666656,105.066673,33.878906
203.733337,438.399994,120.266663,33.878906
186.0,440.800018,103.333328,33.882812
198.133331,435.200012,116.933334,33.882812
188.933334,442.0,107.200005,33.878906
202.53334,436.399994,114.933327,33.882812
190.666672,441.866699,109.199997,33.882812
200.93335,437.733337,108.666672,33.878906
192.266678,439.199982,114.133331,33.878906
200.266663,437.466675,109.199997,33.878906
194.266663,440.93335,115.733337,33.878906
199.866653,440.133331,107.733337,33.878906
191.333328,437.866669,119.466667,33.878906
197.199997,439.599976,102.933334,33.882812
198.0,439.199982,120.133331,33.878906
199.333328,443.066681,107.466667,33.878906
193.46666,434.266663,116.53334,33.878906
193.733337,441.466675,106.400002,33.878906
200.133347,437.466675,118.800003,33.878906
199.466675,443.733337,112.133331,33.878906
190.666672,434.933319,114.533325,33.878906
196.399994,442.533325,107.866669,33.878906
197.600006,435.600006,118.533333,33.878906
205.866669,440.533325,115.333336,33.878906
191.733337,435.200012,109.466667,33.878906
194.933334,440.93335,114.266663,33.882812
198.666672,437.200012,110.800003,33.882812
200.400009,439.599976,118.666672,33.878906
193.199997,438.399994,106.0,33.878906
197.333344,438.800018,114.799995,33.882812
198.666672,437.599976,109.466667,33.878906
203.333344,437.333344,120.666664,33.878906
190.266663,438.266663,106.133339,33.878906
197.199997,437.466675,118.400002,33.878906
196.133331,439.199982,106.53334,33.878906
203.199997,437.733337,118.133331,33.882812
190.400009,440.133331,106.800003,33.882812
196.933319,436.133362,117.466667,33.878906
196.933319,440.93335,111.199997,33.878906
204.0,434.933319,115.066673,33.878906
189.199997,440.93335,111.866669,33.878906
194.666672,435.733337,114.799995,33.878906
196.666656,442.266663,110.800003,33.878906
200.400009,438.533325,110.666664,33.878906
192.666656,438.399994,115.733337,33.878906
194.799988,436.533325,109.866669,33.878906
200.133347,441.466675,115.466675,33.878906
200.266663,439.06665,106.800003,33.878906
194.400009,437.866669,120.266663,33.882812
194.0,437.866669,105.200005,33.878906
202.0,439.599976,118.666672,33.878906
196.133331,440.666656,107.066666,33.878906
198.666672,437.466675,117.466667,33.878906
189.733337,438.0,107.200005,33.875
202.666656,438.800018,119.066666,33.878906
194.266663,441.06665,110.266663,33.878906
197.866669,436.933319,118.26667,33.878906
188.666672,440.0,106.933334,33.878906
203.333344,436.933319,119.333336,33.878906
196.666656,440.400024,113.199997,33.878906
195.200012,436.799988,113.866661,33.878906
191.866669,439.199982,111.599998,33.878906
202.399994,438.399994,115.200005,33.875
195.200012,438.0,116.400002,33.878906
198.266663,438.93335,109.733337,33.878906
190.533325,436.399994,116.0,33.875
202.399994,437.599976,112.0,33.875
198.266663,437.06665,114.933327,33.878906
197.333344,438.93335,108.800003,33.878906
190.0,435.066681,116.0,33.878906
200.133347,439.466675,109.333336,33.875
197.600006,436.266663,116.133339,33.878906
198.666672,440.266693,110.133331,33.878906
190.400009,434.666687,115.333336,33.875
198.133331,440.400024,108.933334,33.878906
195.333328,436.933319,111.199997,33.878906
197.199997,442.666656,114.666664,33.875
190.93335,434.399994,115.066673,33.878906
199.466675,441.06665,110.800003,33.878906
194.933334,437.06665,112.266663,33.878906
199.333328,440.133331,114.533325,33.878906
190.0,435.333313,112.799995,33.878906
200.266663,440.800018,114.399994,33.878906
196.133331,437.599976,107.466667,33.878906
197.46666,437.599976,119.066666,33.878906
188.399994,436.533325,108.0,33.878906
201.066666,439.199982,116.133339,33.878906
192.800003,436.933319,108.533333,33.878906
200.0,438.399994,116.400002,33.878906
188.666672,435.866669,108.800003,33.875
195.200012,436.666687,115.866669,33.875
188.799988,436.933319,111.199997,33.878906
200.93335,439.733307,114.666664,33.878906
190.93335,438.533325,114.133331,33.875
196.133331,438.133301,111.466667,33.878906
188.933334,436.0,113.46666,33.878906
199.333328,439.599976,112.799995,33.875
195.333328,437.866669,114.0,33.878906
192.0,437.200012,112.533333,33.878906
190.93335,435.200012,114.533325,33.878906
196.933319,438.266663,110.800003,33.878906
197.333344,436.799988,115.466675,33.878906
192.266678,437.06665,107.866669,33.878906
190.400009,437.200012,115.200005,33.878906
194.933334,437.866669,109.333336,33.878906
199.199997,437.733337,114.266663,33.878906
188.666672,434.933319,108.400002,33.878906
192.800003,438.0,114.266663,33.878906
192.53334,437.466675,110.533333,33.875
199.866653,439.599976,114.666664,33.878906
187.733322,436.266663,109.733337,33.878906
190.666672,438.266663,115.066673,33.878906
195.866669,437.733337,109.866669,33.878906
199.199997,439.333344,114.533325,33.878906
188.933334,435.333313,110.400002,33.878906
193.199997,437.466675,112.399994,33.875
194.266663,436.0,113.199997,33.878906
200.666672,439.733307,112.666664,33.878906
189.06665,435.066681,113.066666,33.878906
193.600006,437.733337,110.666664,33.878906
194.133331,436.399994,110.933334,33.875
200.93335,437.733337,113.73333,33.878906
188.0,435.066681,112.266663,33.878906
193.46666,436.533325,110.533333,33.878906
193.199997,436.666687,114.666664,33.875
200.400009,438.800018,111.866669,33.878906
189.599991,435.866669,113.066666,33.878906
195.866669,437.866669,112.133331,33.875
192.0,437.866669,114.133331,33.875
202.800003,438.533325,114.266663,33.878906
188.933334,439.06665,113.866661,33.878906
198.0,437.599976,113.73333,33.875
190.666672,437.200012,112.399994,33.875
200.266663,438.666656,114.0,33.878906
191.600006,438.133301,113.599998,33.878906
194.0,438.399994,113.599998,33.878906
196.399994,438.0,111.333328,33.878906
189.733337,436.533325,112.933334,33.878906
202.266678,437.200012,113.333328,33.878906
196.133331,439.733307,111.333328,33.878906
199.599991,438.533325,110.933334,33.878906
189.733337,437.733337,112.933334,33.878906
200.0,438.399994,112.399994,33.875
192.399994,437.599976,113.46666,33.878906
203.600006,437.733337,114.533325,33.878906
190.533325,437.333344,112.933334,33.875
197.333344,437.333344,113.73333,33.875
190.533325,436.533325,109.466667,33.875
201.466675,436.799988,115.200005,33.878906
191.466675,436.266663,112.533333,33.875
197.199997,436.933319,112.933334,33.878906
192.0,434.799988,110.800003,33.875
201.466675,439.866669,113.46666,33.875
191.466675,435.466644,111.599998,33.875
195.466675,438.133301,111.73333,33.878906
188.666672,434.399994,110.800003,33.878906
201.200012,440.93335,114.533325,33.875
189.466675,435.866669,113.066666,33.875
199.466675,440.0,110.666664,33.878906
188.133331,433.600006,111.466667,33.875
202.399994,442.666656,115.466675,33.875
191.333328,434.266663,111.73333,33.875
197.066666,441.600006,113.866661,33.878906
188.799988,434.133331,111.199997,33.878906
202.133331,440.800018,115.200005,33.875
190.666672,435.733337,113.333328,33.875
196.0,439.866669,112.266663,33.875
188.133331,436.266663,110.266663,33.878906
198.133331,437.333344,114.533325,33.875
196.933319,437.599976,110.400002,33.875
191.466675,435.333313,113.199997,33.878906
191.733337,439.733307,111.866669,33.875
193.733337,435.066681,113.599998,33.875
198.799988,441.733337,111.73333,33.875
188.666672,434.933319,110.666664,33.875
191.333328,441.333344,115.733337,33.878906
195.200012,435.066681,112.666664,33.878906
199.06665,442.666656,114.0,33.878906
189.199997,433.066681,111.466667,33.875
193.199997,439.866669,115.200005,33.875
195.466675,434.666687,112.0,33.875
197.866669,442.133331,115.200005,33.878906
189.06665,432.799988,111.466667,33.875
192.800003,437.866669,117.066666,33.878906
194.400009,435.733337,107.600006,33.875
199.333328,439.06665,119.066666,33.878906
187.600006,433.066681,110.266663,33.875
195.733337,436.133362,114.399994,33.878906
189.599991,436.799988,109.333336,33.878906
201.600006,437.599976,115.866669,33.875
188.933334,436.533325,109.466667,33.875
198.266663,435.600006,113.599998,33.875
188.666672,441.06665,110.400002,33.878906
202.266678,434.266663,115.866669,33.878906
188.666672,440.400024,112.266663,33.878906
199.466675,435.466644,112.266663,33.875
189.199997,439.199982,114.0,33.878906
200.0,434.533356,112.266663,33.875
191.866669,440.400024,114.799995,33.878906
199.199997,436.666687,110.800003,33.875
188.533325,437.333344,116.133339,33.875
200.133347,433.866638,111.066666,33.875
189.199997,440.533325,115.333336,33.875
196.800003,437.200012,109.733337,33.875
190.666672,435.600006,116.133339,33.875
200.0,437.333344,110.266663,33.878906
192.800003,436.533325,117.200005,33.878906
198.666672,441.733337,110.933334,33.875
188.666672,432.533325,114.799995,33.875
197.333344,440.800018,109.199997,33.878906
194.400009,434.133331,118.800003,33.878906
200.93335,442.400024,115.733337,33.875
188.799988,431.866699,112.133331,33.878906
195.200012,442.400024,112.799995,33.875
197.333344,433.466675,113.866661,33.875
202.133331,442.666656,117.200005,33.878906
189.733337,430.800018,110.133331,33.875
196.266663,441.600006,114.799995,33.875
197.866669,434.266663,111.333328,33.878906
201.200012,437.466675,116.800003,33.878906
191.200012,436.533325,110.0,33.875
195.200012,437.200012,115.733337,33.878906
199.333328,437.599976,108.533333,33.878906
197.733322,434.666687,115.866669,33.878906
195.466675,440.800018,108.800003,33.878906
191.600006,432.533325,116.400002,33.878906
199.733337,441.199982,108.533333,33.878906
195.866669,432.400024,113.333328,33.878906
194.533325,442.666656,115.333336,33.878906
191.200012,431.600006,110.266663,33.878906
200.800003,442.133331,113.46666,33.878906
197.600006,432.799988,110.0,33.878906
199.733337,442.93335,117.066666,33.875
188.666672,430.800018,108.26667,33.878906
200.400009,443.333313,115.733337,33.875
193.600006,434.799988,107.866669,33.875
200.533325,439.733307,117.600006,33.878906
186.800003,434.666687,104.933327,33.878906
201.066666,440.266693,119.599998,33.878906
193.46666,438.399994,104.399994,33.878906
201.333328,437.599976,119.599998,33.878906
185.733337,435.866669,106.0,33.875
202.399994,438.93335,119.733337,33.878906
192.0,440.800018,108.800003,33.878906
201.066666,434.666687,118.0,33.878906
187.733322,439.333344,108.133331,33.878906
200.533325,434.399994,117.333336,33.878906
195.866669,442.533325,109.866669,33.878906
198.533325,431.866699,117.333336,33.878906
187.866669,440.533325,110.533333,33.878906
200.93335,433.466675,116.133339,33.878906
194.266663,441.199982,116.133339,33.878906
198.666672,433.466675,110.533333,33.875
188.666672,440.666656,114.933327,33.878906
198.399994,433.200012,110.800003,33.878906
194.799988,438.266663,116.400002,33.878906
199.199997,435.866669,109.466667,33.878906
190.0,439.199982,117.333336,33.878906
197.333344,435.733337,107.733337,33.878906
192.133331,433.066681,118.666672,33.878906
199.06665,440.93335,108.26667,33.878906
192.399994,434.0,119.599998,33.878906
194.533325,439.466675,106.400002,33.878906
189.199997,429.599976,113.73333,33.878906
198.933334,443.200012,110.666664,33.878906
190.666672,431.199982,117.200005,33.878906
195.200012,442.400024,106.26667,33.878906
186.800003,430.400024,108.933334,33.878906
199.06665,443.866638,115.866669,33.878906
195.066666,432.533325,110.933334,33.878906
191.200012,441.199982,114.799995,33.878906
188.266663,433.600006,105.866669,33.878906
198.666672,440.800018,120.0,33.878906
196.133331,434.666687,108.0,33.878906
194.533325,440.93335,114.666664,33.878906
186.399994,437.733337,104.933327,33.878906
202.266678,440.400024,121.199997,33.878906
190.533325,434.399994,105.466675,33.882812
194.533325,438.93335,119.333336,33.878906
185.866669,438.800018,105.200005,33.878906
200.533325,436.0,120.533333,33.878906
190.533325,439.733307,106.0,33.878906
194.400009,434.533356,120.800003,33.878906
186.0,440.533325,106.800003,33.878906
203.199997,433.733337,117.733337,33.878906
192.399994,442.133331,108.0,33.878906
193.866669,431.733337,118.26667,33.878906
187.066666,441.333344,112.666664,33.878906
198.133331,430.93335,112.933334,33.878906
195.200012,443.066681,112.533333,33.878906
191.600006,428.93335,112.533333,33.878906
188.533325,440.533325,114.266663,33.878906
202.0,431.333344,112.0,33.878906
188.666672,442.400024,115.333336,33.878906
193.866669,430.400024,111.599998,33.878906
188.666672,439.06665,118.26667,33.878906
198.133331,435.200012,106.800003,33.878906
195.333328,440.800018,119.199997,33.878906
193.600006,432.133331,106.800003,33.878906
191.600006,435.733337,120.266663,33.878906
198.666672,437.06665,106.26667,33.878906
190.533325,438.533325,118.400002,33.878906
195.866669,435.333313,103.333328,33.878906
192.399994,432.133331,119.733337,33.878906
196.666656,442.400024,106.800003,33.878906
195.200012,433.600006,122.266663,33.878906
191.200012,439.599976,105.600006,33.878906
189.599991,428.666656,116.0,33.878906
196.800003,443.733337,109.866669,33.878906
195.333328,430.533325,117.466667,33.878906
193.333344,442.133331,104.933327,33.878906
187.066666,430.800018,108.26667,33.878906
198.133331,443.733337,114.399994,33.878906
195.066666,430.93335,111.73333,33.878906
191.333328,441.733337,112.399994,33.878906
187.866669,434.399994,104.399994,33.878906
195.599991,439.866669,120.266663,33.878906
197.333344,436.133362,105.600006,33.878906
190.0,438.533325,119.733337,33.878906
188.666672,440.400024,106.933334,33.878906
197.199997,434.399994,119.733337,33.878906
198.533325,441.333344,105.200005,33.878906
190.800003,435.200012,121.333328,33.878906
189.199997,440.666656,107.066666,33.878906
196.666656,432.400024,119.866669,33.878906
197.066666,443.200012,108.26667,33.878906
191.200012,431.199982,119.733337,33.878906
194.400009,442.266663,112.0,33.878906
194.799988,429.733307,111.73333,33.878906
198.133331,442.799988,114.133331,33.878906
188.399994,430.266693,113.866661,33.878906
197.46666,442.0,118.133331,33.878906
187.866669,430.800018,106.800003,33.878906
201.733337,443.200012,118.0,33.878906
189.199997,430.666656,106.800003,33.878906
198.533325,439.466675,122.0,33.878906
188.799988,434.399994,104.533325,33.878906
202.133331,440.266693,123.73333,33.878906
186.53334,433.066681,102.799995,33.878906
196.266663,436.799988,122.533333,33.878906
189.733337,437.200012,104.266663,33.878906
202.933334,439.199982,122.533333,33.878906
185.866669,436.133362,103.866661,33.878906
197.733322,432.799988,120.933334,33.878906
189.199997,440.533325,105.733337,33.878906
202.53334,435.066681,122.0,33.878906
184.933334,441.199982,104.533325,33.878906
197.733322,430.800018,117.466667,33.878906
188.666672,440.800018,110.266663,33.878906
202.399994,432.0,115.600006,33.878906
188.0,441.333344,109.733337,33.878906
198.266663,433.866638,107.600006,33.878906
189.866653,440.800018,114.799995,33.878906
200.533325,433.066681,109.066666,33.878906
189.733337,440.800018,113.333328,33.878906
195.733337,437.599976,107.466667,33.875
189.599991,438.266663,119.333336,33.878906
198.799988,438.399994,103.866661,33.878906
195.866669,438.93335,121.066666,33.878906
199.199997,442.400024,106.0,33.878906
191.333328,432.93335,120.666664,33.878906
196.133331,441.866699,105.466675,33.878906
197.066666,434.799988,122.266663,33.878906
199.599991,443.200012,110.133331,33.878906
189.333328,431.333344,116.0,33.875
198.399994,442.533325,107.466667,33.878906
195.200012,431.466675,121.599998,33.878906
200.0,444.399994,115.466675,33.878906
190.533325,430.266693,109.199997,33.878906
194.533325,442.666656,113.199997,33.878906
197.199997,431.466675,113.599998,33.878906
201.866669,441.866699,119.733337,33.878906
189.199997,432.533325,105.200005,33.878906
200.666672,441.466675,115.200005,33.878906
193.333344,432.533325,110.800003,33.875
203.866669,439.866669,122.399994,33.878906
187.733322,435.200012,103.199997,33.878906
199.06665,439.733307,121.066666,33.878906
193.199997,435.466644,104.399994,33.875
202.53334,436.666687,122.933334,33.878906
187.46666,438.93335,104.399994,33.878906
198.533325,435.466644,122.266663,33.878906
192.266678,440.0,108.666672,33.878906
202.800003,432.133331,118.0,33.878906
187.866669,441.600006,111.066666,33.878906
196.266663,431.06665,117.866669,33.878906
197.066666,442.799988,108.400002,33.878906
200.533325,432.93335,112.266663,33.882812
192.0,440.800018,114.399994,33.878906
192.53334,430.666656,112.666664,33.878906
197.333344,442.93335,113.73333,33.878906
198.133331,435.733337,104.533325,33.878906
191.600006,440.0,120.133331,33.878906
192.133331,433.066681,105.066673,33.878906
198.266663,442.133331,118.533333,33.878906
194.266663,439.333344,104.666664,33.878906
196.800003,437.333344,122.799995,33.878906
189.466675,436.533325,103.73333,33.878906
196.933319,440.133331,120.133331,33.878906
198.133331,441.333344,106.133339,33.878906
192.266678,434.933319,123.866661,33.878906
195.200012,438.800018,102.133331,33.878906
194.533325,437.466675,124.399994,33.878906
198.266663,441.866699,107.466667,33.878906
192.0,432.799988,121.599998,33.878906
194.799988,441.333344,106.26667,33.878906
198.399994,434.933319,121.73333,33.878906
198.533325,443.066681,111.73333,33.878906
192.933334,430.266693,115.333336,33.878906
192.933334,441.466675,108.933334,33.878906
196.0,432.0,121.466667,33.878906
200.93335,441.466675,116.933334,33.878906
190.533325,431.333344,111.466667,33.878906
196.0,441.733337,112.933334,33.875
197.46666,432.533325,113.333328,33.878906
202.800003,440.93335,119.866669,33.878906
189.466675,433.466675,106.400002,33.878906
195.733337,439.733307,118.26667,33.878906
197.600006,435.466644,108.133331,33.878906
203.199997,436.933319,122.799995,33.878906
188.266663,438.133301,105.333336,33.878906
196.0,436.666687,121.73333,33.878906
196.800003,438.399994,105.333336,33.878906
200.533325,434.933319,120.266663,33.878906
192.266678,440.400024,106.800003,33.878906
194.533325,432.133331,121.466667,33.882812
198.0,441.733337,108.26667,33.878906
200.800003,432.533325,113.066666,33.878906
194.799988,441.199982,113.73333,33.878906
193.733337,431.600006,113.599998,33.878906
199.333328,442.799988,110.533333,33.878906
194.799988,433.600006,109.733337,33.878906
197.199997,441.06665,115.733337,33.878906
190.93335,431.466675,111.73333,33.875
199.866653,442.400024,115.866669,33.882812
193.866669,436.266663,106.53334,33.878906
198.799988,439.06665,119.333336,33.878906
189.06665,434.399994,103.46666,33.878906
202.53334,439.06665,120.933334,33.878906
193.066681,438.399994,105.600006,33.878906
200.93335,437.200012,121.333328,33.878906
186.800003,436.533325,104.799995,33.878906
201.600006,437.866669,121.599998,33.878906
191.200012,441.06665,107.733337,33.878906
201.466675,435.066681,120.133331,33.878906
186.53334,437.866669,106.53334,33.882812
202.800003,434.399994,120.133331,33.878906
190.93335,440.400024,108.533333,33.878906
201.600006,434.399994,115.866669,33.882812
186.933319,439.199982,109.199997,33.878906
199.733337,434.399994,116.133339,33.878906
190.400009,437.599976,115.466675,33.878906
200.800003,434.799988,111.73333,33.878906
190.0,438.266663,114.133331,33.878906
197.066666,434.266663,110.800003,33.878906
191.466675,436.666687,116.800003,33.878906
200.266663,436.666687,107.200005,33.878906
192.133331,436.666687,117.333336,33.878906
193.46666,435.600006,105.733337,33.878906
189.866653,433.466675,119.333336,33.878906
196.666656,440.0,107.200005,33.878906
195.200012,434.799988,119.866669,33.878906
190.133347,437.733337,106.400002,33.878906
190.133347,432.266663,115.333336,33.878906
198.133331,440.666656,108.26667,33.878906
196.266663,433.600006,120.266663,33.878906
190.133347,438.800018,108.26667,33.878906
190.666672,433.066681,111.466667,33.878906
194.533325,439.866669,113.73333,33.878906
199.733337,434.933319,112.799995,33.878906
188.533325,437.599976,111.466667,33.878906
191.733337,435.733337,107.600006,33.878906
193.066681,437.06665,117.866669,33.878906
198.399994,437.333344,111.866669,33.878906
187.733322,438.0,115.466675,33.878906
194.400009,438.399994,106.400002,33.878906
191.600006,434.266663,120.133331,33.878906
198.933334,439.466675,107.600006,33.882812
191.066666,434.799988,118.533333,33.878906
196.399994,440.666656,109.466667,33.878906
191.066666,432.0,117.466667,33.878906
199.199997,441.733337,109.599998,33.878906
188.799988,434.666687,118.800003,33.878906
196.399994,440.400024,115.333336,33.878906
190.533325,432.133331,114.0,33.882812
199.333328,441.600006,112.799995,33.878906
193.46666,433.333313,115.733337,33.878906
199.199997,440.266693,117.200005,33.878906
190.0,433.733337,109.066666,33.878906
198.133331,440.0,116.0,33.878906
194.933334,435.333313,109.733337,33.878906
202.266678,436.933319,121.333328,33.878906
187.46666,436.399994,106.53334,33.878906
196.933319,437.06665,118.26667,33.878906
195.466675,437.599976,108.0,33.878906
201.733337,436.799988,119.066666,33.878906
192.933334,438.0,107.066666,33.878906
194.533325,434.399994,117.466667,33.882812
197.600006,439.599976,108.933334,33.878906
202.133331,436.666687,116.133339,33.878906
189.06665,439.06665,113.066666,33.882812
195.066666,435.066681,112.533333,33.878906
198.799988,439.866669,111.466667,33.878906
198.399994,436.799988,112.266663,33.878906
195.466675,438.533325,113.199997,33.878906
190.533325,434.133331,112.799995,33.878906
200.533325,440.400024,115.333336,33.878906
197.066666,437.06665,109.599998,33.878906
197.066666,437.333344,116.26667,33.878906
190.266663,436.133362,106.0,33.878906
201.600006,437.333344,118.666672,33.878906
193.733337,436.799988,108.0,33.878906
199.733337,437.466675,117.333336,33.878906
187.199997,435.600006,107.466667,33.878906
200.533325,437.06665,117.200005,33.878906
190.0,436.933319,109.466667,33.878906
201.333328,437.866669,116.53334,33.882812
187.866669,436.399994,108.26667,33.878906
202.133331,436.266663,115.733337,33.878906
191.866669,437.733337,109.599998,33.878906
201.200012,438.133301,116.26667,33.878906
188.0,436.666687,111.333328,33.878906
200.800003,437.866669,115.733337,33.878906
190.133347,436.266663,114.0,33.878906
201.733337,438.399994,113.73333,33.878906
188.266663,436.399994,113.46666,33.882812
198.0,437.733337,113.333328,33.878906
189.733337,435.466644,112.666664,33.878906
200.93335,436.933319,112.133331,33.878906
189.599991,435.866669,116.26667,33.878906
193.866669,436.933319,110.400002,33.878906
189.599991,434.266663,114.933327,33.878906
199.199997,438.0,109.333336,33.878906
193.733337,435.333313,115.866669,33.882812
192.133331,436.266663,109.733337,33.878906
191.066666,435.866669,113.866661,33.882812
199.466675,437.866669,110.133331,33.878906
192.133331,436.666687,116.800003,33.878906
192.666656,437.06665,107.333336,33.878906
188.799988,436.399994,113.199997,33.878906
195.866669,438.0,112.533333,33.878906
196.53334,439.466675,114.0,33.878906
189.06665,435.733337,111.599998,33.878906
191.733337,436.133362,112.133331,33.878906
194.666672,436.399994,114.799995,33.878906
197.199997,437.599976,116.133339,33.878906
189.06665,435.466644,110.933334,33.878906
193.46666,436.133362,110.933334,33.882812
192.53334,435.333313,114.399994,33.878906
198.799988,439.199982,112.666664,33.878906
187.733322,434.266663,113.199997,33.878906
194.666672,436.533325,110.666664,33.882812
192.53334,436.0,113.866661,33.878906
200.133347,438.266663,112.0,33.878906
186.933319,436.266663,112.399994,33.878906
192.53334,436.799988,114.399994,33.878906
191.200012,438.0,110.933334,33.878906
200.400009,438.533325,112.799995,33.878906
196.666656,439.466675,115.066673,33.878906
200.533325,437.333344,114.666664,33.878906
190.666672,436.533325,112.266663,33.878906
196.0,436.399994,114.266663,33.878906
197.866669,438.666656,113.599998,33.878906
200.93335,436.399994,114.399994,33.882812
191.466675,436.266663,112.799995,33.882812
195.466675,435.733337,111.599998,33.878906
197.866669,437.866669,112.799995,33.878906
200.666672,438.133301,114.0,33.882812
191.066666,435.200012,111.466667,33.878906
196.800003,436.399994,113.199997,33.882812
196.800003,436.799988,112.399994,33.878906
202.133331,441.466675,114.533325,33.878906
189.06665,435.600006,113.46666,33.882812
196.933319,438.533325,110.933334,33.882812
196.666656,436.133362,115.066673,33.882812
200.266663,441.466675,114.933327,33.882812
192.53334,434.933319,112.399994,33.878906
192.399994,439.466675,114.399994,33.878906
198.666672,437.06665,113.46666,33.882812
198.133331,437.733337,114.799995,33.882812
194.533325,435.066681,112.266663,33.882812
192.800003,438.266663,111.866669,33.882812
200.533325,435.466644,115.333336,33.878906
193.866669,436.533325,113.199997,33.882812
197.46666,436.799988,111.199997,33.878906
190.800003,435.333313,113.599998,33.882812
200.0,437.200012,113.599998,33.882812
198.399994,436.399994,113.199997,33.882812
196.0,438.0,111.599998,33.882812
190.266663,432.133331,113.066666,33.878906
199.733337,438.800018,111.866669,33.882812
193.600006,434.533356,109.466667,33.882812
198.266663,440.666656,116.666672,33.878906
188.133331,433.200012,111.73333,33.878906
199.333328,441.733337,113.599998,33.878906
190.0,432.799988,111.333328,33.878906
201.733337,442.266663,116.666672,33.878906
189.199997,433.200012,111.466667,33.878906
198.0,441.466675,114.399994,33.878906
189.733337,434.799988,107.600006,33.878906
203.333344,438.399994,117.733337,33.882812
188.933334,434.666687,112.933334,33.882812
195.866669,438.93335,116.0,33.882812
188.0,435.600006,109.333336,33.878906
200.800003,436.933319,114.266663,33.882812
190.666672,436.799988,110.533333,33.882812
193.46666,435.466644,114.799995,33.878906
188.133331,439.06665,111.333328,33.882812
198.666672,435.066681,111.199997,33.878906
193.333344,439.866669,114.933327,33.882812
191.733337,433.333313,111.466667,33.878906
191.466675,440.133331,114.399994,33.878906
195.333328,434.133331,112.133331,33.882812
196.800003,442.533325,115.333336,33.878906
188.133331,432.133331,111.333328,33.878906
193.866669,438.93335,116.0,33.878906
197.333344,435.200012,112.0,33.878906
194.0,441.199982,114.666664,33.878906
193.46666,433.466675,108.133331,33.878906
190.400009,439.333344,113.866661,33.878906
198.533325,436.0,111.333328,33.882812
195.466675,440.133331,116.133339,33.878906
190.400009,432.799988,111.066666,33.882812
191.466675,435.200012,116.0,33.882812
195.733337,436.799988,108.26667,33.882812
197.733322,437.866669,116.400002,33.882812
189.06665,434.266663,109.333336,33.882812
190.666672,434.133331,116.133339,33.882812
195.599991,438.266663,107.333336,33.882812
198.266663,435.866669,116.53334,33.882812
187.866669,436.133362,109.199997,33.882812
189.866653,431.199982,113.333328,33.882812
194.933334,441.06665,110.266663,33.878906
198.933334,434.666687,115.066673,33.882812
199.199997,441.600006,116.0,33.882812
197.46666,438.399994,109.066666,33.878906
193.066681,437.200012,119.333336,33.882812
193.733337,436.266663,105.200005,33.878906
201.333328,439.599976,118.0,33.882812
196.399994,440.800018,109.466667,33.882812
198.0,434.666687,116.800003,33.882812
190.93335,437.733337,108.133331,33.882812
201.466675,436.666687,117.733337,33.882812
195.866669,441.733337,111.866669,33.882812
194.533325,432.93335,114.799995,33.882812
191.466675,441.06665,108.133331,33.878906
201.466675,433.600006,118.666672,33.878906
197.866669,444.399994,114.799995,33.882812
196.133331,433.333313,111.73333,33.882812
189.733337,440.400024,112.666664,33.882812
200.93335,434.0,113.333328,33.882812
197.46666,439.866669,117.466667,33.882812
196.399994,434.799988,109.466667,33.882812
190.400009,438.666656,116.800003,33.882812
201.733337,434.0,110.533333,33.882812
196.399994,436.666687,115.866669,33.882812
197.733322,438.666656,107.466667,33.882812
189.866653,435.866669,117.733337,33.882812
197.600006,438.133301,108.533333,33.882812
190.266663,431.333344,115.333336,33.882812
199.733337,442.93335,109.466667,33.882812
191.333328,432.400024,116.666672,33.882812
196.53334,441.199982,108.533333,33.882812
190.0,431.333344,109.599998,33.882812
201.733337,443.333313,113.866661,33.886719
191.066666,430.666656,114.133331,33.882812
194.933334,443.333313,110.400002,33.882812
187.199997,431.866699,107.600006,33.882812
191.466675,434.266663,118.800003,33.882812
196.399994,440.400024,107.333336,33.882812
194.400009,436.266663,119.333336,33.882812
199.466675,444.799988,111.466667,33.882812
189.599991,431.733337,115.066673,33.882812
197.199997,442.799988,107.600006,33.882812
198.933334,433.600006,116.666672,33.882812
198.799988,444.399994,115.866669,33.882812
199.199997,438.800018,106.933334,33.886719
195.200012,438.0,119.466667,33.882812
192.0,436.266663,106.0,33.882812
191.466675,432.666656,117.600006,33.882812
197.46666,442.533325,106.933334,33.882812
195.333328,433.866638,122.399994,33.882812
191.333328,440.266693,102.266663,33.886719
192.399994,430.666656,114.266663,33.882812
197.46666,444.0,110.533333,33.882812
195.733337,433.733337,118.26667,33.886719
190.93335,441.333344,107.466667,33.882812
189.599991,430.266693,110.933334,33.882812
197.866669,444.399994,113.46666,33.882812
196.933319,431.866699,111.866669,33.886719
191.200012,442.93335,108.666672,33.882812
188.666672,433.733337,108.133331,33.882812
195.200012,442.133331,117.733337,33.882812
198.0,433.333313,106.800003,33.886719
190.0,440.266693,116.26667,33.882812
191.600006,437.733337,105.600006,33.886719
195.466675,437.333344,120.0,33.882812
197.866669,438.93335,105.733337,33.882812
191.466675,436.933319,118.800003,33.882812
190.800003,440.266693,108.666672,33.882812
196.266663,433.200012,116.133339,33.882812
197.733322,441.866699,107.066666,33.882812
191.066666,434.533356,120.0,33.882812
196.666656,443.600006,109.599998,33.886719
191.866669,430.133331,116.666672,33.886719
198.799988,444.399994,110.800003,33.882812
191.466675,430.93335,117.200005,33.882812
198.933334,443.866638,114.0,33.886719
188.799988,430.93335,108.666672,33.886719
201.466675,443.866638,114.666664,33.882812
188.533325,430.666656,114.0,33.882812
200.133347,442.799988,118.533333,33.886719
188.666672,431.600006,105.866669,33.882812
201.466675,443.600006,117.066666,33.882812
193.199997,431.733337,107.733337,33.886719
206.666656,439.866669,122.133331,33.882812
187.333344,436.799988,104.133331,33.882812
190.133347,431.466675,116.933334,33.882812
198.666672,443.333313,106.933334,33.886719
191.200012,429.466675,109.866669,33.886719
200.93335,444.666687,114.666664,33.886719
