mx,my,mz,temp
204.133331,422.400024,112.133331,29.15625
198.933334,436.0,106.53334,29.152344
204.799988,426.0,103.73333,29.152344
201.733337,433.733337,112.0,29.15625
202.266678,424.799988,105.466675,29.152344
202.0,434.0,109.866669,29.15625
204.533325,427.866669,100.400002,29.152344
200.533325,433.066681,116.0,29.15625
200.133347,425.066681,104.933327,29.15625
200.800003,434.666687,112.533333,29.15625
200.666672,428.133301,100.800003,29.15625
202.933334,432.533325,117.466667,29.15625
199.866653,428.0,102.133331,29.152344
203.199997,431.600006,114.399994,29.152344
200.93335,431.06665,98.666672,29.152344
202.800003,428.133301,117.066666,29.15625
198.799988,430.533325,103.73333,29.15625
205.066666,429.06665,117.333336,29.152344
204.533325,430.266693,100.933334,29.15625
204.266663,430.133331,117.333336,29.152344
199.866653,430.133331,102.133331,29.152344
205.599991,429.06665,115.600006,29.152344
201.600006,430.0,101.466667,29.152344
204.400009,428.133301,116.800003,29.152344
198.399994,429.733307,102.399994,29.152344
208.0,429.333344,114.0,29.152344
204.799988,430.666656,102.666664,29.152344
204.0,429.733307,115.466675,29.152344
198.266663,431.466675,104.0,29.152344
202.666656,427.866669,115.333336,29.152344
200.266663,431.466675,106.400002,29.152344
204.400009,428.399994,109.466667,29.152344
197.066666,432.666656,108.933334,29.152344
205.333328,427.599976,110.266663,29.152344
193.333344,431.866699,112.266663,29.152344
203.066681,427.599976,107.866669,29.152344
196.53334,433.600006,107.333336,29.152344
203.066681,426.533325,109.733337,29.152344
201.066666,430.666656,109.466667,29.152344
204.799988,428.93335,108.800003,29.15625
201.466675,432.799988,107.733337,29.152344
199.733337,427.466675,108.400002,29.152344
199.06665,430.133331,113.333328,29.152344
206.266663,429.199982,105.600006,29.152344
201.200012,432.266663,110.933334,29.152344
200.93335,431.600006,106.133339,29.152344
202.800003,429.599976,113.333328,29.148438
199.866653,430.533325,105.333336,29.152344
203.46666,427.06665,111.599998,29.152344
199.733337,428.266663,105.466675,29.152344
204.933334,429.866669,110.533333,29.152344
203.46666,431.199982,109.733337,29.152344
200.400009,430.133331,113.066666,29.152344
202.933334,429.333344,106.800003,29.152344
201.866669,428.93335,106.400002,29.152344
203.46666,429.466675,109.333336,29.152344
201.200012,431.466675,108.0,29.148438
201.600006,430.400024,113.73333,29.148438
200.266663,432.0,107.466667,29.152344
198.666672,430.666656,113.066666,29.148438
201.200012,429.199982,103.333328,29.148438
199.599991,429.733307,114.0,29.152344
204.799988,432.266663,107.733337,29.152344
200.800003,430.133331,110.933334,29.148438
204.0,428.800018,106.133339,29.152344
203.333344,432.666656,112.799995,29.152344
202.933334,430.266693,108.933334,29.148438
201.733337,432.533325,111.73333,29.152344
202.800003,428.0,104.399994,29.148438
202.800003,432.0,111.866669,29.152344
205.466675,429.199982,107.066666,29.148438
201.733337,431.733337,109.866669,29.152344
202.666656,427.06665,107.866669,29.152344
200.666672,434.266663,111.199997,29.152344
200.133347,430.266693,109.199997,29.148438
202.933334,428.266663,108.26667,29.152344
200.800003,431.733337,110.933334,29.148438
200.133347,429.199982,107.200005,29.148438
202.399994,432.666656,112.933334,29.148438
200.133347,428.399994,105.333336,29.152344
202.800003,433.466675,110.133331,29.152344
199.199997,427.466675,107.866669,29.148438
201.733337,434.933319,110.800003,29.148438
203.46666,426.666687,107.733337,29.148438
203.199997,434.666687,110.533333,29.148438
200.666672,427.599976,108.0,29.152344
203.733337,432.533325,113.599998,29.148438
200.93335,430.266693,110.0,29.152344
200.666672,429.06665,110.266663,29.148438
203.199997,429.199982,107.333336,29.148438
203.066681,426.399994,107.733337,29.152344
200.0,432.799988,108.133331,29.148438
202.399994,427.733337,107.733337,29.148438
202.800003,428.93335,104.799995,29.148438
201.600006,418.93335,107.466667,29.148438
202.666656,434.0,108.133331,29.148438
200.133347,427.599976,111.599998,29.148438
202.266678,431.733337,104.0,29.152344
201.333328,426.0,107.866669,29.148438
202.399994,435.200012,109.599998,29.148438
200.400009,426.933319,110.933334,29.148438
201.066666,436.933319,112.266663,29.148438
199.866653,430.533325,107.333336,29.152344
203.600006,428.399994,110.266663,29.148438
204.666672,428.533325,106.666672,29.144531
200.133347,432.0,115.066673,29.148438
203.600006,432.666656,104.933327,29.148438
202.133331,428.533325,111.333328,29.148438
202.0,435.600006,114.799995,29.148438
200.266663,425.333313,108.133331,29.148438
196.666656,431.866699,113.199997,29.148438
200.533325,426.933319,105.466675,29.148438
204.799988,433.333313,113.46666,29.144531
198.0,427.599976,107.066666,29.148438
200.266663,429.866669,116.26667,29.148438
198.266663,428.533325,103.599998,29.148438
203.46666,432.0,113.599998,29.148438
198.399994,430.400024,106.53334,29.148438
202.933334,430.0,113.46666,29.148438
201.200012,429.466675,104.399994,29.148438
202.0,424.666687,110.266663,29.148438
201.066666,434.666687,105.866669,29.148438
205.733337,425.866669,106.800003,29.148438
200.533325,435.600006,112.266663,29.148438
202.933334,425.066681,105.866669,29.148438
202.800003,436.266663,106.800003,29.148438
205.599991,424.666687,105.466675,29.148438
201.866669,436.399994,113.599998,29.148438
199.199997,421.199982,106.933334,29.148438
200.400009,435.733337,111.73333,29.144531
201.866669,425.866669,103.333328,29.144531
204.533325,424.666687,109.199997,29.148438
203.066681,432.666656,103.599998,29.144531
200.400009,427.200012,115.066673,29.148438
201.333328,436.666687,108.533333,29.144531
203.066681,423.866638,110.666664,29.148438
203.199997,435.866669,106.53334,29.144531
202.266678,426.266663,111.866669,29.144531
202.800003,434.266663,110.933334,29.148438
202.133331,423.600006,108.933334,29.148438
204.133331,435.733337,106.666672,29.148438
198.399994,424.666687,111.866669,29.144531
203.46666,435.200012,113.599998,29.144531
200.133347,424.266663,105.866669,29.144531
202.933334,434.799988,112.533333,29.144531
202.53334,432.400024,101.599998,29.144531
200.800003,423.466675,111.199997,29.148438
200.133347,433.866638,105.066673,29.144531
202.933334,426.133362,112.666664,29.148438
199.866653,431.06665,101.866669,29.144531
199.733337,424.0,112.133331,29.144531
204.0,434.0,103.73333,29.144531
203.066681,426.666687,115.333336,29.144531
201.200012,431.466675,101.333328,29.148438
204.799988,424.266663,107.866669,29.144531
203.600006,434.133331,106.666672,29.144531
201.200012,425.600006,111.866669,29.144531
201.333328,433.866638,105.733337,29.144531
198.399994,425.733337,107.066666,29.144531
204.266663,433.600006,108.666672,29.144531
201.466675,424.799988,108.666672,29.144531
198.799988,435.200012,110.933334,29.144531
199.733337,427.599976,102.799995,29.144531
203.866669,432.0,114.0,29.148438
201.733337,427.866669,104.399994,29.144531
209.06665,430.93335,114.533325,29.144531
200.400009,434.133331,102.0,29.144531
200.666672,430.666656,117.466667,29.144531
202.399994,429.466675,97.333336,29.144531
202.266678,432.266663,120.800003,29.144531
199.06665,430.0,102.399994,29.144531
201.066666,427.733337,118.533333,29.144531
198.0,435.200012,106.133339,29.144531
204.133331,422.93335,112.0,29.144531
201.466675,432.400024,109.333336,29.140625
202.800003,425.333313,107.866669,29.144531
201.200012,435.333313,109.866669,29.144531
204.0,422.93335,105.066673,29.144531
200.400009,434.133331,113.866661,29.144531
201.866669,425.866669,105.066673,29.144531
201.466675,435.866669,114.799995,29.144531
200.400009,422.400024,105.066673,29.144531
203.199997,431.466675,116.133339,29.140625
202.0,427.733337,100.133331,29.144531
202.666656,433.733337,115.333336,29.144531
200.533325,424.399994,100.400002,29.144531
205.066666,429.599976,120.266663,29.144531
201.066666,430.800018,97.333336,29.140625
203.199997,432.533325,121.333328,29.144531
201.200012,422.666656,99.866669,29.144531
203.866669,428.533325,117.866669,29.144531
200.266663,435.066681,105.066673,29.144531
204.666672,423.200012,113.46666,29.140625
198.666672,435.733337,104.266663,29.140625
203.866669,424.266663,105.466675,29.144531
197.733322,435.600006,112.933334,29.144531
206.0,422.799988,105.600006,29.140625
201.200012,435.866669,110.800003,29.144531
206.266663,425.866669,102.266663,29.144531
201.466675,436.0,113.866661,29.140625
202.53334,418.666656,103.866661,29.140625
198.533325,436.133362,110.0,29.144531
201.733337,426.933319,101.466667,29.144531
202.266678,435.066681,116.53334,29.140625
203.199997,426.266663,100.800003,29.140625
203.866669,435.333313,116.0,29.144531
200.266663,429.199982,99.733337,29.140625
202.0,430.400024,120.666664,29.144531
197.733322,431.333344,99.333336,29.140625
205.200012,429.199982,119.466667,29.140625
200.0,433.333313,101.866669,29.140625
205.733337,426.666687,118.400002,29.140625
196.53334,433.733337,102.0,29.140625
206.133331,427.599976,116.666672,29.140625
202.399994,435.066681,104.0,29.140625
208.266663,421.06665,114.666664,29.140625
196.933319,436.0,102.933334,29.140625
206.133331,423.733337,116.400002,29.140625
200.666672,434.799988,106.933334,29.140625
199.599991,427.06665,99.333336,29.140625
204.799988,432.799988,115.466675,29.140625
200.400009,428.133301,101.866669,29.140625
207.066666,430.400024,117.733337,29.140625
196.399994,429.866669,101.73333,29.140625
203.600006,430.666656,114.266663,29.140625
198.133331,430.93335,102.399994,29.140625
209.866653,427.466675,118.133331,29.140625
198.666672,433.600006,100.400002,29.136719
203.333344,426.533325,117.466667,29.136719
200.400009,432.666656,100.266663,29.140625
208.533325,423.600006,113.46666,29.140625
197.333344,434.799988,106.26667,29.136719
203.066681,426.266663,116.133339,29.140625
200.533325,432.799988,100.400002,29.140625
205.733337,424.399994,113.199997,29.140625
197.866669,436.933319,106.0,29.140625
204.533325,422.400024,113.066666,29.140625
201.200012,433.866638,103.333328,29.140625
204.0,422.133331,107.466667,29.140625
197.199997,435.733337,108.133331,29.140625
203.199997,424.266663,111.866669,29.140625
200.666672,432.400024,117.733337,29.140625
196.800003,426.933319,101.866669,29.140625
203.066681,426.666687,119.066666,29.136719
199.333328,432.400024,101.333328,29.140625
202.53334,430.266693,119.866669,29.136719
200.266663,436.0,105.066673,29.140625
202.266678,425.466644,116.26667,29.136719
202.133331,432.93335,102.933334,29.140625
204.533325,426.533325,120.533333,29.140625
202.933334,434.399994,105.866669,29.136719
201.066666,424.0,113.333328,29.140625
202.399994,432.533325,106.666672,29.140625
207.866669,426.266663,112.533333,29.140625
205.599991,432.93335,110.666664,29.136719
202.53334,431.866699,100.800003,29.136719
202.133331,432.400024,118.0,29.136719
197.066666,428.666656,100.800003,29.136719
202.266678,427.599976,119.866669,29.140625
201.066666,431.199982,97.333336,29.140625
203.066681,422.93335,107.866669,29.136719
203.600006,433.600006,110.533333,29.136719
201.333328,425.600006,101.73333,29.136719
200.93335,433.733337,113.866661,29.140625
202.266678,424.933319,104.133331,29.140625
201.333328,434.666687,111.199997,29.140625
201.866669,424.533356,102.0,29.136719
200.93335,432.133331,117.333336,29.136719
200.266663,427.733337,102.0,29.140625
202.666656,433.466675,111.866669,29.136719
201.200012,428.266663,101.066666,29.140625
203.199997,432.0,115.200005,29.140625
200.133347,428.133301,102.799995,29.136719
203.066681,431.866699,115.866669,29.136719
197.866669,429.733307,100.666664,29.140625
203.866669,430.533325,117.333336,29.136719
195.733337,431.06665,103.066666,29.136719
204.266663,429.866669,113.599998,29.136719
198.133331,431.866699,99.599998,29.136719
204.933334,429.733307,117.333336,29.136719
200.400009,431.466675,102.0,29.140625
203.199997,427.866669,115.733337,29.136719
202.53334,431.733337,103.199997,29.136719
206.53334,428.133301,115.066673,29.140625
199.06665,433.333313,104.0,29.140625
202.53334,426.933319,113.73333,29.136719
198.933334,433.066681,107.733337,29.136719
209.466675,427.200012,109.066666,29.136719
200.800003,434.533356,106.26667,29.136719
203.600006,425.200012,112.0,29.140625
198.666672,432.666656,110.533333,29.136719
204.133331,425.866669,107.733337,29.136719
204.666672,429.866669,115.333336,29.136719
200.93335,431.733337,104.399994,29.136719
206.0,428.0,113.599998,29.136719
196.800003,431.199982,106.933334,29.136719
202.53334,428.666656,112.666664,29.136719
198.666672,431.866699,104.266663,29.136719
206.133331,427.866669,114.0,29.136719
199.733337,433.200012,105.066673,29.136719
204.400009,426.399994,114.133331,29.136719
201.066666,432.666656,104.933327,29.136719
205.200012,425.333313,111.199997,29.136719
196.666656,432.533325,108.533333,29.136719
200.800003,428.0,111.199997,29.136719
202.800003,432.133331,105.200005,29.136719
206.666656,427.06665,110.133331,29.136719
204.0,427.733337,110.666664,29.136719
202.666656,431.06665,107.333336,29.132812
202.133331,428.800018,108.666672,29.136719
199.733337,429.866669,104.799995,29.136719
203.066681,427.599976,111.333328,29.136719
200.93335,430.0,108.800003,29.136719
199.866653,429.599976,110.933334,29.136719
200.533325,430.533325,107.200005,29.136719
202.933334,426.933319,112.933334,29.136719
200.800003,431.466675,107.600006,29.136719
201.200012,427.866669,111.466667,29.132812
202.0,431.333344,104.133331,29.136719
204.666672,426.933319,112.0,29.136719
200.666672,434.533356,107.333336,29.136719
200.666672,424.399994,111.066666,29.136719
197.600006,430.93335,107.866669,29.132812
204.0,428.133301,110.133331,29.136719
200.666672,431.733337,105.733337,29.136719
198.799988,429.866669,112.266663,29.132812
202.0,432.799988,109.066666,29.132812
202.53334,430.266693,110.533333,29.132812
202.800003,429.599976,107.733337,29.132812
202.399994,431.333344,110.933334,29.132812
207.46666,430.266693,108.0,29.136719
200.0,429.333344,110.933334,29.132812
202.800003,429.333344,104.399994,29.132812
202.933334,431.733337,109.199997,29.132812
205.733337,428.266663,110.666664,29.132812
199.06665,432.0,109.066666,29.132812
200.533325,424.0,111.066666,29.132812
199.866653,431.866699,109.199997,29.132812
202.666656,427.06665,110.133331,29.132812
203.600006,430.266693,106.400002,29.132812
194.799988,429.199982,115.066673,29.136719
205.733337,429.599976,103.73333,29.132812
202.666656,428.399994,109.466667,29.136719
200.666672,430.666656,108.26667,29.136719
202.0,430.266693,111.466667,29.132812
203.46666,427.06665,104.799995,29.132812
205.866669,430.266693,109.866669,29.132812
201.600006,429.599976,106.933334,29.132812
200.133347,431.06665,112.933334,29.132812
199.866653,428.93335,104.666664,29.132812
198.533325,432.266663,112.799995,29.136719
206.53334,428.0,107.466667,29.132812
202.266678,434.0,111.199997,29.132812
200.800003,428.266663,107.466667,29.132812
201.600006,433.333313,110.533333,29.132812
201.600006,425.466644,109.333336,29.136719
202.53334,434.266663,110.133331,29.132812
199.466675,428.666656,107.733337,29.132812
199.199997,431.600006,113.333328,29.132812
200.400009,428.133301,107.733337,29.132812
203.600006,432.400024,112.0,29.132812
200.266663,429.06665,109.066666,29.132812
206.0,431.333344,109.199997,29.132812
201.600006,427.200012,107.733337,29.132812
204.0,431.866699,109.866669,29.132812
199.333328,429.733307,110.400002,29.132812
204.799988,433.466675,108.533333,29.132812
204.799988,433.333313,110.933334,29.132812
198.799988,427.200012,109.066666,29.136719
202.133331,430.800018,109.466667,29.132812
199.466675,431.06665,108.666672,29.132812
199.199997,428.266663,109.199997,29.132812
202.666656,427.466675,107.200005,29.132812
198.666672,430.133331,111.866669,29.132812
204.933334,432.533325,107.866669,29.132812
199.199997,428.533325,111.599998,29.132812
204.0,429.866669,104.133331,29.132812
200.400009,429.06665,112.799995,29.132812
202.933334,433.200012,108.0,29.132812
201.066666,428.800018,109.599998,29.132812
203.199997,429.333344,105.866669,29.132812
200.533325,430.0,111.466667,29.132812
203.600006,433.600006,108.933334,29.128906
201.466675,428.533325,108.800003,29.132812
203.46666,429.733307,105.200005,29.132812
204.533325,428.133301,110.400002,29.132812
205.599991,433.733337,107.333336,29.132812
200.400009,427.599976,109.333336,29.132812
199.199997,432.0,107.866669,29.132812
202.53334,428.533325,109.599998,29.128906
201.066666,429.466675,111.466667,29.132812
201.466675,428.0,105.466675,29.132812
203.600006,431.199982,114.666664,29.128906
200.0,428.133301,107.066666,29.132812
200.800003,428.133301,114.0,29.132812
199.733337,430.93335,102.133331,29.132812
202.266678,430.0,112.533333,29.128906
200.93335,430.133331,104.399994,29.132812
200.0,428.0,110.666664,29.132812
201.733337,433.733337,107.333336,29.128906
204.799988,426.133362,110.400002,29.128906
200.0,435.466644,107.200005,29.132812
205.333328,426.533325,107.066666,29.132812
205.733337,433.200012,114.0,29.128906
197.733322,428.133301,108.933334,29.132812
205.733337,431.600006,110.133331,29.128906
202.0,429.466675,103.46666,29.128906
205.333328,428.93335,111.73333,29.132812
198.666672,430.800018,104.933327,29.132812
203.866669,428.0,113.333328,29.128906
200.0,432.799988,104.666664,29.132812
206.399994,427.466675,111.466667,29.128906
198.266663,430.533325,108.666672,29.128906
205.733337,428.93335,112.0,29.128906
199.466675,435.600006,111.73333,29.132812
202.266678,424.533356,107.200005,29.128906
203.733337,435.333313,110.933334,29.128906
201.733337,426.666687,109.866669,29.132812
202.0,434.133331,113.199997,29.128906
201.200012,426.799988,107.066666,29.132812
203.733337,432.93335,110.800003,29.128906
198.666672,424.666687,110.266663,29.132812
208.799988,432.533325,112.0,29.128906
199.599991,428.133301,103.866661,29.132812
204.933334,431.333344,113.333328,29.132812
201.333328,426.799988,105.466675,29.128906
204.266663,430.93335,114.666664,29.132812
199.199997,429.599976,103.599998,29.128906
202.399994,429.733307,114.933327,29.132812
200.533325,429.199982,104.933327,29.132812
202.399994,426.933319,111.333328,29.132812
201.066666,432.666656,103.73333,29.128906
203.333344,427.200012,115.466675,29.128906
201.866669,430.666656,100.666664,29.128906
204.933334,428.0,113.333328,29.128906
200.533325,435.066681,104.933327,29.128906
204.266663,426.0,114.533325,29.128906
202.399994,432.0,100.400002,29.128906
197.866669,423.466675,108.933334,29.128906
201.866669,434.0,113.066666,29.128906
200.533325,425.866669,104.266663,29.132812
201.733337,434.133331,118.0,29.128906
200.266663,432.533325,101.599998,29.128906
202.0,430.133331,117.200005,29.128906
200.93335,428.666656,100.0,29.128906
204.400009,422.0,110.133331,29.128906
200.533325,431.333344,107.866669,29.128906
205.733337,423.066681,106.133339,29.132812
198.399994,435.866669,110.266663,29.128906
205.066666,422.93335,106.26667,29.128906
203.866669,434.533356,111.199997,29.128906
200.93335,423.333313,106.133339,29.128906
201.333328,437.06665,108.800003,29.128906
202.399994,421.600006,106.933334,29.128906
201.600006,434.133331,115.066673,29.128906
201.200012,424.399994,102.933334,29.128906
199.733337,436.533325,114.799995,29.128906
202.666656,424.533356,102.666664,29.128906
201.466675,432.133331,120.133331,29.128906
201.066666,427.599976,97.333336,29.128906
201.333328,434.933319,117.600006,29.132812
200.666672,425.600006,102.266663,29.128906
205.866669,427.733337,118.400002,29.128906
200.400009,429.466675,99.866669,29.128906
202.266678,433.600006,118.0,29.128906
199.599991,427.599976,98.533333,29.128906
204.400009,427.733337,120.666664,29.128906
198.0,432.266663,100.666664,29.128906
204.666672,430.0,116.933334,29.128906
197.600006,431.199982,101.599998,29.128906
203.46666,426.666687,117.066666,29.128906
198.399994,433.333313,101.199997,29.128906
206.0,422.133331,116.0,29.128906
199.333328,434.666687,101.599998,29.128906
204.133331,422.93335,115.866669,29.128906
198.666672,434.933319,104.0,29.128906
208.533325,423.466675,114.666664,29.128906
195.466675,434.799988,105.333336,29.128906
206.0,424.399994,111.599998,29.128906
201.200012,436.0,117.066666,29.128906
200.533325,424.133331,102.666664,29.128906
203.866669,435.333313,112.933334,29.128906
202.800003,426.399994,98.933334,29.128906
204.400009,434.399994,115.466675,29.128906
198.0,431.06665,102.0,29.128906
204.533325,433.066681,115.066673,29.128906
198.266663,430.666656,100.266663,29.128906
203.733337,429.333344,118.133331,29.125
198.666672,432.400024,100.266663,29.128906
203.866669,429.199982,115.466675,29.128906
201.066666,433.333313,100.800003,29.125
205.333328,425.600006,119.199997,29.128906
197.46666,433.866638,100.0,29.128906
202.666656,428.399994,115.466675,29.125
196.133331,434.933319,105.466675,29.125
205.066666,424.0,112.933334,29.128906
200.0,436.266663,103.066666,29.125
203.600006,427.200012,116.933334,29.128906
198.533325,432.799988,104.799995,29.125
206.266663,422.799988,114.666664,29.125
199.333328,436.666687,104.799995,29.125
203.066681,423.333313,110.933334,29.128906
203.199997,434.933319,114.399994,29.128906
197.866669,423.866638,106.400002,29.128906
202.266678,435.066681,106.800003,29.125
201.733337,423.733337,111.066666,29.125
203.600006,437.866669,114.0,29.125
199.06665,433.466675,101.333328,29.125
202.800003,428.666656,117.733337,29.125
201.733337,431.333344,101.199997,29.128906
204.933334,424.399994,117.733337,29.125
200.0,433.200012,104.133331,29.125
202.666656,428.93335,118.933334,29.125
203.600006,431.866699,97.866669,29.128906
204.933334,421.199982,116.400002,29.125
199.06665,434.399994,102.266663,29.125
204.533325,426.399994,118.400002,29.125
201.600006,433.066681,100.666664,29.125
204.0,422.666656,114.133331,29.128906
198.533325,434.666687,102.133331,29.125
201.866669,427.200012,116.800003,29.125
201.600006,433.200012,98.533333,29.125
197.600006,424.133331,108.933334,29.125
200.93335,434.0,109.066666,29.125
202.53334,430.266693,100.800003,29.128906
203.46666,433.866638,117.066666,29.125
201.066666,433.333313,100.800003,29.125
203.600006,429.333344,116.666672,29.125
201.466675,429.866669,101.333328,29.128906
204.266663,432.0,120.133331,29.125
205.333328,433.733337,99.733337,29.125
201.866669,428.0,119.733337,29.125
198.666672,430.533325,100.933334,29.125
202.53334,431.06665,118.666672,29.125
199.866653,434.133331,101.73333,29.125
202.53334,427.866669,119.066666,29.125
200.133347,431.06665,100.266663,29.125
201.466675,431.466675,118.666672,29.125
202.133331,433.333313,102.666664,29.125
201.733337,427.733337,118.533333,29.125
203.600006,430.800018,96.933334,29.125
201.733337,430.93335,116.800003,29.125
202.399994,434.133331,104.0,29.125
203.066681,427.06665,114.666664,29.125
199.866653,431.466675,103.866661,29.121094
205.200012,428.399994,114.266663,29.125
204.933334,433.066681,107.200005,29.125
202.0,425.866669,116.26667,29.125
200.400009,432.533325,102.799995,29.125
203.46666,426.799988,113.46666,29.125
205.200012,432.666656,108.400002,29.125
202.399994,428.266663,101.466667,29.125
203.066681,432.93335,116.800003,29.125
201.333328,426.533325,102.666664,29.125
202.800003,429.333344,116.666672,29.125
202.133331,429.199982,102.0,29.125
200.666672,430.0,119.466667,29.125
198.0,428.666656,99.599998,29.125
202.0,428.266663,119.199997,29.125
201.866669,431.199982,101.866669,29.121094
201.733337,431.466675,116.53334,29.125
201.466675,428.266663,102.0,29.125
202.133331,425.333313,115.733337,29.121094
201.333328,430.133331,102.0,29.125
203.333344,430.133331,114.933327,29.125
200.533325,430.533325,99.599998,29.121094
200.133347,427.06665,117.066666,29.125
196.666656,433.200012,110.133331,29.125
205.599991,426.533325,112.399994,29.128906
199.866653,433.600006,106.400002,29.125
202.53334,427.733337,110.800003,29.125
200.266663,431.866699,108.400002,29.125
203.46666,427.200012,108.533333,29.125
199.06665,434.0,106.26667,29.121094
207.46666,427.599976,107.733337,29.125
199.866653,431.600006,110.0,29.125
206.266663,427.866669,107.066666,29.125
199.466675,432.266663,106.26667,29.121094
203.199997,429.733307,105.333336,29.121094
199.333328,431.600006,111.866669,29.125
202.266678,427.200012,106.133339,29.125
201.866669,431.600006,111.73333,29.125
201.866669,429.733307,105.600006,29.121094
199.199997,430.266693,114.533325,29.125
200.400009,428.266663,102.533333,29.121094
204.133331,430.666656,112.0,29.125
201.466675,428.800018,103.199997,29.125
201.200012,430.533325,114.533325,29.125
199.199997,428.0,103.599998,29.121094
203.866669,430.666656,113.866661,29.121094
196.266663,428.666656,103.46666,29.121094
202.933334,430.666656,114.666664,29.121094
199.733337,429.599976,103.73333,29.125
202.933334,429.733307,116.400002,29.125
200.0,430.266693,101.73333,29.121094
202.0,430.800018,113.066666,29.121094
199.866653,429.333344,104.533325,29.121094
202.933334,427.599976,111.73333,29.125
200.0,429.733307,106.0,29.125
203.066681,430.400024,110.533333,29.121094
200.0,431.199982,106.400002,29.121094
204.266663,429.599976,107.466667,29.121094
199.333328,429.199982,105.600006,29.121094
204.0,431.06665,109.866669,29.121094
199.599991,428.133301,106.0,29.121094
203.866669,430.0,110.933334,29.121094
205.333328,428.533325,106.53334,29.125
203.46666,432.533325,112.799995,29.125
197.866669,431.333344,105.866669,29.121094
201.333328,430.666656,110.266663,29.121094
201.466675,428.133301,104.399994,29.121094
204.133331,432.0,113.866661,29.121094
197.866669,429.599976,109.066666,29.121094
205.066666,430.666656,110.400002,29.121094
200.93335,426.799988,106.933334,29.121094
204.0,433.466675,111.199997,29.121094
198.533325,428.533325,107.333336,29.121094
203.066681,430.133331,108.0,29.121094
201.866669,427.599976,107.600006,29.121094
202.399994,432.666656,111.466667,29.121094
196.53334,429.333344,109.466667,29.121094
206.53334,432.266663,107.600006,29.121094
204.133331,427.466675,107.866669,29.121094
200.93335,436.666687,111.866669,29.121094
197.866669,429.06665,109.199997,29.121094
203.46666,430.93335,109.599998,29.125
201.333328,427.599976,108.533333,29.121094
204.666672,430.800018,110.666664,29.125
199.466675,427.333344,111.866669,29.121094
203.600006,431.06665,108.400002,29.121094
199.333328,428.133301,108.800003,29.121094
205.466675,431.06665,110.0,29.121094
198.266663,429.599976,110.400002,29.121094
201.333328,429.733307,110.0,29.121094
198.266663,429.866669,108.0,29.121094
203.066681,427.733337,109.866669,29.121094
199.333328,431.06665,108.26667,29.121094
201.333328,429.866669,109.199997,29.121094
208.0,432.400024,107.066666,29.121094
198.133331,428.666656,111.466667,29.121094
201.600006,432.799988,109.866669,29.121094
203.066681,428.133301,107.466667,29.121094
202.933334,427.733337,110.0,29.121094
197.600006,435.466644,113.333328,29.121094
202.800003,432.0,109.866669,29.121094
202.800003,429.333344,109.599998,29.121094
204.799988,431.06665,107.600006,29.121094
198.533325,428.133301,111.199997,29.121094
201.866669,432.266663,108.800003,29.121094
204.533325,427.733337,107.333336,29.121094
203.066681,430.133331,111.066666,29.121094
200.533325,429.733307,109.199997,29.117188
201.866669,429.733307,110.933334,29.121094
203.866669,428.266663,108.800003,29.121094
199.333328,427.866669,110.266663,29.117188
203.46666,429.199982,107.733337,29.121094
199.466675,430.266693,114.133331,29.121094
204.799988,428.0,104.266663,29.121094
202.666656,426.933319,110.133331,29.121094
202.399994,431.06665,105.333336,29.121094
202.266678,428.800018,111.599998,29.121094
202.53334,429.333344,104.666664,29.121094
200.93335,426.666687,110.133331,29.121094
202.266678,432.0,106.666672,29.121094
200.266663,429.333344,112.399994,29.121094
199.333328,430.666656,103.199997,29.121094
198.133331,426.666687,112.0,29.121094
200.266663,432.266663,106.400002,29.121094
203.199997,428.800018,111.466667,29.117188
200.266663,432.133331,105.733337,29.121094
204.666672,427.599976,108.533333,29.117188
203.46666,432.93335,109.466667,29.117188
203.333344,427.466675,110.266663,29.121094
200.93335,433.200012,107.200005,29.117188
200.93335,426.666687,109.599998,29.121094
201.466675,433.066681,106.933334,29.117188
201.600006,424.933319,112.799995,29.121094
200.533325,432.400024,106.133339,29.121094
200.666672,426.933319,107.466667,29.121094
202.800003,432.799988,108.666672,29.121094
202.53334,427.06665,109.333336,29.117188
201.466675,434.266663,109.866669,29.117188
203.066681,429.599976,100.533333,29.117188
202.53334,429.599976,118.0,29.121094
202.0,427.333344,99.599998,29.117188
205.333328,431.466675,114.0,29.117188
202.0,430.533325,103.46666,29.121094
202.800003,430.266693,114.799995,29.121094
198.533325,427.06665,102.533333,29.121094
199.466675,434.533356,115.600006,29.117188
200.533325,431.333344,103.46666,29.117188
200.266663,430.133331,115.200005,29.117188
202.53334,428.93335,101.199997,29.121094
198.666672,431.600006,117.866669,29.117188
200.133347,430.533325,103.73333,29.117188
202.933334,430.133331,116.133339,29.117188
199.599991,428.0,104.133331,29.117188
202.800003,432.266663,116.400002,29.121094
200.400009,431.866699,103.199997,29.117188
200.800003,429.06665,108.533333,29.117188
198.399994,436.266663,108.133331,29.117188
204.0,423.733337,108.133331,29.117188
202.933334,434.933319,112.799995,29.117188
203.46666,423.733337,101.466667,29.117188
200.800003,436.533325,110.133331,29.117188
202.133331,422.93335,106.0,29.117188
206.0,433.600006,114.666664,29.121094
201.866669,423.600006,102.399994,29.121094
200.93335,435.733337,116.133339,29.117188
198.133331,425.066681,103.199997,29.121094
202.399994,429.866669,119.199997,29.117188
197.866669,429.466675,98.800003,29.117188
206.399994,431.333344,114.799995,29.117188
196.933319,427.599976,102.399994,29.117188
202.133331,431.199982,117.200005,29.117188
199.333328,426.933319,100.0,29.117188
203.333344,432.93335,118.133331,29.117188
199.06665,427.466675,100.800003,29.117188
203.46666,430.400024,117.600006,29.117188
196.266663,435.733337,108.666672,29.117188
203.333344,423.200012,110.666664,29.117188
202.933334,435.733337,105.733337,29.117188
203.199997,421.199982,108.0,29.117188
200.800003,437.466675,108.400002,29.117188
203.866669,421.733337,109.866669,29.117188
202.266678,436.933319,108.0,29.117188
201.866669,420.93335,104.133331,29.117188
203.600006,436.799988,113.46666,29.117188
197.066666,423.466675,107.466667,29.117188
204.799988,435.466644,107.733337,29.117188
198.933334,426.266663,99.333336,29.117188
202.666656,435.733337,115.333336,29.117188
198.933334,425.200012,103.066666,29.117188
205.066666,433.733337,115.333336,29.117188
203.866669,426.933319,99.333336,29.117188
205.466675,434.266663,117.066666,29.117188
199.466675,427.06665,99.466667,29.117188
206.399994,433.733337,111.866669,29.117188
197.066666,428.800018,99.199997,29.117188
207.199997,431.733337,115.333336,29.117188
202.0,435.200012,103.599998,29.117188
203.46666,424.0,113.066666,29.117188
202.266678,435.466644,110.266663,29.117188
200.93335,424.666687,105.866669,29.117188
199.733337,433.066681,109.199997,29.117188
203.066681,424.533356,103.866661,29.117188
203.066681,430.266693,114.933327,29.117188
203.066681,429.599976,97.066666,29.117188
200.400009,432.400024,117.600006,29.117188
201.733337,426.533325,100.533333,29.117188
203.066681,422.400024,118.133331,29.117188
201.066666,432.0,98.800003,29.117188
199.333328,430.93335,119.199997,29.117188
197.600006,428.399994,98.400002,29.117188
202.266678,425.200012,116.800003,29.117188
201.200012,434.0,100.0,29.117188
203.066681,426.0,119.199997,29.117188
196.666656,433.600006,101.333328,29.117188
201.066666,425.066681,112.666664,29.117188
198.933334,432.533325,103.46666,29.117188
204.0,422.93335,112.533333,29.117188
199.466675,435.066681,104.666664,29.117188
202.53334,425.600006,106.666672,29.117188
202.399994,434.133331,110.133331,29.117188
206.266663,423.600006,106.0,29.117188
196.133331,435.333313,109.733337,29.117188
204.0,425.600006,104.799995,29.117188
200.133347,433.866638,110.400002,29.117188
201.066666,423.333313,106.26667,29.117188
200.400009,436.266663,108.933334,29.117188
201.866669,428.666656,100.933334,29.117188
205.599991,423.866638,115.200005,29.117188
199.466675,435.866669,102.666664,29.117188
202.266678,425.600006,116.0,29.117188
197.46666,434.666687,107.200005,29.117188
206.133331,424.933319,112.133331,29.117188
198.933334,435.866669,105.466675,29.113281
205.599991,424.266663,114.266663,29.113281
206.266663,435.466644,113.333328,29.117188
202.266678,423.733337,105.600006,29.117188
200.0,434.266663,109.866669,29.117188
200.0,424.399994,111.333328,29.113281
205.866669,431.866699,114.799995,29.117188
201.733337,434.133331,100.266663,29.117188
202.0,426.933319,120.0,29.117188
200.400009,430.533325,99.733337,29.117188
203.733337,424.399994,114.0,29.117188
201.200012,433.333313,102.133331,29.113281
203.600006,427.599976,117.200005,29.117188
201.200012,430.93335,101.466667,29.117188
206.666656,424.399994,112.533333,29.117188
203.066681,434.266663,102.266663,29.117188
202.266678,425.466644,116.800003,29.113281
198.399994,433.066681,101.73333,29.113281
201.200012,425.733337,110.133331,29.117188
202.133331,432.93335,106.0,29.117188
199.333328,427.466675,112.666664,29.113281
203.333344,432.266663,105.866669,29.113281
201.466675,427.333344,106.800003,29.117188
202.666656,431.199982,108.933334,29.113281
202.399994,426.533325,110.133331,29.113281
199.733337,434.666687,110.133331,29.113281
200.133347,428.133301,107.866669,29.113281
202.53334,429.199982,110.933334,29.113281
203.199997,428.399994,108.0,29.113281
200.800003,432.93335,111.199997,29.113281
203.333344,432.266663,102.133331,29.113281
202.800003,427.733337,114.266663,29.113281
199.466675,432.400024,104.799995,29.113281
207.333344,427.333344,111.333328,29.113281
200.133347,433.066681,105.466675,29.113281
207.066666,426.266663,110.666664,29.117188
198.399994,433.333313,106.400002,29.113281
204.266663,425.466644,113.066666,29.113281
203.46666,431.199982,116.0,29.113281
198.533325,428.533325,102.533333,29.113281
204.400009,429.866669,112.399994,29.113281
198.799988,432.266663,104.399994,29.113281
202.800003,429.599976,117.333336,29.113281
196.399994,429.466675,103.333328,29.113281
205.200012,430.133331,112.533333,29.117188
199.599991,429.599976,106.0,29.113281
201.333328,430.533325,115.733337,29.113281
199.866653,428.93335,103.066666,29.113281
204.266663,427.866669,113.199997,29.113281
200.666672,430.93335,104.933327,29.113281
204.0,430.266693,114.533325,29.113281
203.866669,432.666656,108.666672,29.113281
197.600006,428.399994,114.266663,29.117188
203.866669,431.733337,103.066666,29.113281
201.733337,426.133362,108.0,29.113281
199.599991,433.200012,109.066666,29.113281
200.93335,429.06665,111.73333,29.113281
200.400009,430.400024,113.46666,29.113281
196.800003,432.133331,104.399994,29.113281
198.666672,428.0,112.933334,29.113281
204.533325,430.133331,100.933334,29.109375
201.866669,428.93335,114.0,29.113281
203.866669,431.466675,103.599998,29.113281
202.0,429.466675,112.533333,29.113281
202.933334,428.666656,103.73333,29.113281
202.933334,430.266693,111.599998,29.113281
200.533325,430.400024,106.26667,29.113281
202.666656,431.466675,111.599998,29.113281
201.466675,428.533325,104.666664,29.113281
203.866669,430.533325,110.933334,29.113281
202.0,429.599976,105.600006,29.113281
203.199997,430.93335,112.0,29.113281
198.0,429.333344,107.600006,29.109375
203.066681,429.599976,109.199997,29.113281
206.0,427.466675,108.26667,29.113281
201.866669,431.733337,112.399994,29.109375
201.066666,427.466675,107.200005,29.113281
204.933334,431.333344,110.800003,29.113281
201.466675,428.533325,107.200005,29.113281
205.066666,430.666656,108.26667,29.113281
198.666672,428.266663,109.066666,29.113281
201.600006,432.533325,110.133331,29.109375
201.866669,425.733337,108.400002,29.109375
200.666672,433.200012,111.466667,29.109375
200.266663,428.0,108.800003,29.113281
202.933334,432.266663,109.733337,29.109375
201.200012,426.666687,107.733337,29.109375
202.0,431.466675,111.599998,29.109375
197.199997,427.733337,112.266663,29.109375
203.199997,430.133331,106.0,29.113281
204.666672,428.533325,108.533333,29.113281
205.066666,428.666656,108.800003,29.113281
201.866669,430.533325,109.866669,29.109375
203.066681,426.0,107.066666,29.113281
200.666672,430.800018,108.26667,29.109375
202.666656,427.599976,108.400002,29.109375
202.266678,430.0,110.933334,29.109375
200.533325,428.800018,109.333336,29.113281
199.333328,431.733337,111.866669,29.113281
202.933334,426.799988,108.533333,29.109375
202.800003,431.466675,108.26667,29.109375
202.399994,427.866669,108.800003,29.109375
201.333328,434.533356,109.866669,29.109375
201.066666,426.799988,107.066666,29.109375
202.933334,429.733307,109.466667,29.109375
202.666656,427.866669,110.0,29.109375
201.333328,430.533325,107.733337,29.113281
202.0,428.266663,110.800003,29.109375
199.06665,430.666656,112.266663,29.113281
201.866669,427.599976,108.533333,29.109375
202.53334,427.733337,109.466667,29.113281
202.933334,429.733307,106.0,29.109375
201.866669,430.133331,111.066666,29.109375
200.93335,427.466675,107.066666,29.109375
202.800003,428.666656,108.26667,29.109375
202.133331,434.799988,105.600006,29.109375
205.066666,426.799988,108.133331,29.109375
201.466675,432.133331,107.866669,29.109375
203.600006,428.399994,109.599998,29.109375
202.53334,432.93335,109.599998,29.109375
202.133331,426.933319,108.533333,29.109375
196.666656,432.400024,106.800003,29.109375
202.399994,428.266663,109.599998,29.109375
199.466675,434.0,108.400002,29.109375
204.133331,426.666687,106.400002,29.109375
195.866669,434.0,110.800003,29.109375
201.733337,427.866669,108.26667,29.109375
201.733337,433.733337,110.133331,29.113281
203.733337,425.733337,108.800003,29.109375
201.333328,435.866669,110.133331,29.109375
201.466675,427.599976,108.0,29.109375
202.666656,433.066681,111.466667,29.109375
203.333344,425.733337,107.466667,29.109375
200.133347,435.066681,114.533325,29.109375
204.666672,427.06665,106.133339,29.109375
201.600006,433.066681,110.0,29.109375
201.600006,425.066681,106.53334,29.109375
197.600006,436.266663,111.066666,29.109375
194.266663,427.06665,105.600006,29.109375
204.266663,428.133301,112.0,29.109375
199.466675,436.533325,108.666672,29.109375
202.133331,424.799988,109.733337,29.109375
199.333328,434.133331,113.73333,29.109375
201.866669,424.533356,105.466675,29.109375
202.266678,436.266663,108.133331,29.109375
201.466675,424.799988,110.800003,29.109375
204.400009,436.133362,112.533333,29.109375
198.533325,424.133331,106.400002,29.105469
202.933334,435.733337,110.666664,29.109375
200.533325,424.799988,106.800003,29.109375
202.266678,434.133331,115.600006,29.109375
195.599991,425.600006,104.799995,29.109375
204.933334,435.200012,110.133331,29.109375
196.399994,423.333313,110.400002,29.105469
204.0,436.133362,112.933334,29.109375
199.466675,421.600006,108.26667,29.109375
202.133331,436.0,108.933334,29.109375
199.599991,423.333313,113.199997,29.109375
202.266678,435.866669,113.73333,29.109375
202.0,421.466675,104.799995,29.105469
203.600006,436.0,112.266663,29.109375
198.0,423.466675,108.666672,29.109375
200.533325,435.600006,113.46666,29.109375
202.53334,423.066681,104.533325,29.109375
203.333344,436.666687,110.133331,29.109375
201.066666,423.466675,107.333336,29.105469
201.733337,434.133331,114.933327,29.105469
199.599991,421.600006,104.399994,29.105469
200.266663,437.06665,112.0,29.109375
202.933334,429.733307,101.333328,29.109375
208.266663,424.799988,110.533333,29.109375
200.93335,435.600006,105.866669,29.105469
204.400009,425.200012,115.733337,29.109375
197.733322,433.466675,99.866669,29.109375
203.733337,420.266693,112.266663,29.109375
199.599991,436.399994,106.933334,29.109375
202.933334,425.733337,115.733337,29.109375
200.533325,433.866638,102.266663,29.105469
205.333328,422.93335,107.600006,29.109375
203.866669,436.0,106.0,29.105469
199.866653,424.0,115.466675,29.109375
202.399994,434.133331,104.399994,29.109375
202.399994,421.866699,106.933334,29.109375
203.46666,436.266663,108.400002,29.109375
202.0,422.666656,108.533333,29.109375
200.666672,433.733337,105.066673,29.109375
199.333328,423.333313,104.533325,29.109375
208.266663,435.200012,109.599998,29.105469
199.333328,422.400024,108.800003,29.105469
200.800003,433.866638,104.399994,29.109375
200.93335,425.866669,100.933334,29.105469
202.266678,431.733337,111.866669,29.105469
201.066666,425.466644,106.26667,29.109375
201.600006,430.93335,106.133339,29.105469
202.399994,424.933319,102.0,29.109375
204.666672,432.93335,111.866669,29.105469
200.0,424.533356,105.466675,29.105469
202.266678,434.266663,105.866669,29.105469
197.46666,427.733337,103.199997,29.105469
204.666672,426.399994,118.0,29.105469
200.133347,431.466675,98.400002,29.109375
203.866669,429.466675,119.066666,29.109375
201.466675,434.533356,96.933334,29.109375
202.266678,423.733337,113.199997,29.109375
201.866669,433.333313,103.199997,29.105469
206.933319,424.0,114.133331,29.105469
209.466675,434.799988,104.266663,29.105469
203.866669,423.200012,113.199997,29.105469
200.266663,433.866638,104.399994,29.109375
205.066666,424.666687,115.466675,29.105469
203.066681,433.866638,107.600006,29.105469
198.0,427.866669,98.933334,29.109375
204.799988,432.533325,117.066666,29.105469
195.466675,427.466675,101.066666,29.109375
205.200012,422.533325,106.26667,29.109375
199.466675,435.466644,108.666672,29.105469
202.0,422.533325,109.599998,29.105469
200.266663,436.133362,105.733337,29.105469
198.666672,421.733337,104.133331,29.109375
200.133347,436.399994,108.533333,29.105469
203.733337,420.266693,110.133331,29.105469
201.600006,434.666687,104.666664,29.105469
204.400009,422.0,107.333336,29.109375
204.799988,432.0,114.399994,29.105469
198.399994,427.466675,105.333336,29.105469
202.266678,433.600006,108.666672,29.105469
198.799988,426.0,99.866669,29.105469
202.933334,432.799988,116.400002,29.109375
200.400009,427.733337,103.333328,29.105469
202.933334,430.400024,113.73333,29.105469
201.600006,436.266663,104.399994,29.105469
203.733337,424.266663,116.53334,29.109375
201.200012,434.266663,99.066666,29.105469
203.866669,424.666687,120.533333,29.109375
201.600006,436.266663,104.399994,29.105469
202.800003,424.0,116.666672,29.105469
201.866669,433.466675,98.400002,29.109375
204.133331,426.133362,118.533333,29.109375
199.866653,436.266663,104.399994,29.105469
201.733337,426.666687,105.066673,29.109375
199.733337,433.600006,111.199997,29.105469
205.066666,423.466675,102.266663,29.105469
202.399994,432.400024,112.533333,29.105469
204.666672,426.666687,102.399994,29.109375
201.066666,431.866699,107.466667,29.105469
204.933334,423.733337,107.733337,29.105469
205.733337,430.93335,112.0,29.105469
203.199997,427.466675,105.066673,29.105469
200.266663,432.93335,111.199997,29.105469
204.0,424.399994,106.53334,29.105469
197.733322,430.666656,115.466675,29.105469
200.266663,428.93335,100.0,29.105469
199.199997,432.533325,119.333336,29.105469
198.666672,435.466644,102.799995,29.105469
203.600006,425.866669,113.066666,29.105469
198.933334,432.799988,103.73333,29.105469
206.133331,424.133331,114.799995,29.105469
196.53334,435.200012,102.799995,29.105469
203.333344,424.799988,112.266663,29.105469
196.933319,434.133331,106.666672,29.105469
206.53334,425.200012,111.199997,29.105469
197.733322,434.399994,106.800003,29.109375
202.133331,426.133362,109.199997,29.105469
200.266663,434.399994,107.200005,29.105469
203.199997,423.466675,111.199997,29.105469
199.733337,435.866669,107.200005,29.105469
200.133347,426.133362,104.266663,29.105469
201.200012,434.666687,111.599998,29.105469
199.733337,425.600006,104.399994,29.109375
204.266663,433.466675,108.533333,29.105469
207.46666,427.733337,99.599998,29.105469
197.199997,433.066681,110.400002,29.105469
204.266663,422.799988,106.0,29.105469
199.333328,435.333313,110.666664,29.105469
202.933334,427.06665,103.066666,29.105469
201.733337,433.600006,111.73333,29.105469
203.600006,423.066681,107.600006,29.105469
203.600006,433.866638,111.333328,29.105469
204.133331,427.866669,101.199997,29.105469
196.133331,433.200012,112.799995,29.105469
199.06665,429.199982,101.866669,29.105469
204.0,430.0,114.933327,29.105469
196.53334,431.06665,100.933334,29.105469
205.733337,428.266663,117.866669,29.105469
199.466675,432.533325,103.066666,29.105469
202.266678,426.666687,116.26667,29.105469
197.46666,432.93335,105.866669,29.105469
208.133331,426.933319,111.466667,29.101562
199.866653,432.533325,105.600006,29.105469
204.266663,426.266663,114.799995,29.105469
199.733337,433.333313,104.533325,29.105469
203.46666,425.333313,113.066666,29.105469
198.799988,434.399994,104.666664,29.105469
204.133331,426.133362,116.53334,29.105469
202.399994,434.533356,107.600006,29.105469
204.533325,426.266663,109.866669,29.105469
202.800003,433.600006,106.800003,29.105469
201.466675,427.866669,114.0,29.105469
197.600006,434.133331,111.199997,29.109375
203.600006,425.600006,105.733337,29.105469
203.600006,433.333313,106.400002,29.105469
202.53334,428.0,112.266663,29.105469
202.666656,433.333313,112.399994,29.105469
200.533325,426.533325,105.200005,29.105469
202.53334,430.0,111.73333,29.105469
203.333344,428.399994,104.266663,29.105469
205.066666,428.533325,110.800003,29.105469
198.133331,432.0,104.266663,29.105469
206.800003,428.0,112.666664,29.105469
200.93335,430.133331,102.399994,29.105469
197.866669,429.333344,109.466667,29.105469
202.266678,430.533325,106.666672,29.105469
204.133331,429.466675,110.533333,29.105469
204.266663,430.800018,111.333328,29.105469
206.266663,430.0,99.599998,29.105469
200.800003,429.733307,117.466667,29.105469
202.666656,427.599976,103.599998,29.105469
202.266678,431.600006,110.800003,29.105469
201.600006,429.06665,102.933334,29.105469
200.666672,430.266693,111.199997,29.105469
203.46666,427.733337,103.866661,29.105469
203.066681,432.266663,113.066666,29.105469
204.933334,430.133331,101.599998,29.105469
200.133347,429.466675,116.53334,29.105469
204.133331,428.93335,102.399994,29.101562
202.399994,431.199982,112.933334,29.105469
204.799988,429.466675,103.333328,29.105469
203.199997,430.533325,113.46666,29.105469
199.866653,428.266663,103.73333,29.105469
202.53334,427.200012,111.73333,29.105469
201.333328,431.466675,108.0,29.105469
204.933334,427.866669,106.133339,29.101562
197.199997,431.733337,110.0,29.105469
201.333328,428.399994,108.133331,29.105469
204.533325,428.133301,111.599998,29.105469
200.400009,431.466675,105.600006,29.105469
203.600006,427.200012,110.666664,29.105469
202.933334,431.06665,104.0,29.105469
204.666672,427.599976,110.933334,29.105469
199.466675,431.600006,106.933334,29.105469
199.199997,428.399994,110.266663,29.105469
206.133331,429.866669,104.799995,29.105469
201.333328,430.133331,110.666664,29.105469
203.46666,430.533325,107.066666,29.105469
199.599991,429.866669,111.199997,29.105469
203.46666,428.533325,104.933327,29.105469
201.466675,429.599976,109.333336,29.105469
202.666656,430.133331,104.533325,29.105469
201.066666,431.333344,110.666664,29.105469
202.933334,426.799988,104.133331,29.105469
200.266663,431.199982,111.066666,29.105469
205.066666,429.866669,105.733337,29.105469
201.866669,432.533325,110.666664,29.105469
202.53334,427.866669,106.933334,29.105469
202.133331,431.466675,109.733337,29.105469
201.600006,428.133301,108.666672,29.105469
200.0,433.466675,111.199997,29.105469
200.533325,428.0,107.600006,29.101562
202.666656,431.600006,113.46666,29.105469
203.066681,428.133301,106.400002,29.101562
200.400009,432.400024,112.666664,29.105469
202.666656,428.533325,100.133331,29.105469
202.133331,431.733337,110.0,29.105469
202.933334,427.733337,109.333336,29.105469
203.066681,434.0,112.0,29.101562
201.466675,427.06665,108.533333,29.101562
200.800003,430.93335,110.133331,29.101562
202.933334,428.0,106.400002,29.105469
202.53334,431.733337,112.266663,29.105469
196.399994,428.133301,108.26667,29.105469
201.200012,432.400024,110.800003,29.105469
201.200012,426.533325,108.533333,29.105469
202.800003,432.799988,110.133331,29.105469
201.600006,428.0,108.800003,29.105469
206.800003,431.600006,110.533333,29.105469
201.466675,426.266663,106.400002,29.105469
204.266663,427.866669,110.800003,29.105469
198.799988,427.200012,111.066666,29.101562
204.266663,429.599976,110.666664,29.105469
201.733337,433.733337,109.333336,29.105469
201.600006,427.333344,108.133331,29.105469
201.466675,431.06665,107.733337,29.105469
202.399994,426.799988,107.066666,29.101562
200.266663,432.400024,108.800003,29.101562
200.533325,428.666656,107.866669,29.101562
201.600006,430.93335,108.666672,29.101562
203.46666,428.533325,110.800003,29.101562
203.46666,429.466675,106.400002,29.101562
203.066681,429.199982,109.599998,29.101562
203.733337,432.0,110.400002,29.105469
200.800003,429.599976,107.866669,29.105469
204.666672,425.600006,111.066666,29.101562
202.133331,429.333344,108.933334,29.105469
202.133331,433.733337,110.800003,29.105469
204.133331,431.333344,104.133331,29.105469
201.733337,427.866669,112.666664,29.105469
200.133347,429.466675,103.599998,29.101562
204.799988,428.800018,111.333328,29.105469
202.0,431.733337,107.333336,29.101562
201.333328,427.333344,109.599998,29.101562
201.866669,431.333344,104.666664,29.101562
201.466675,424.399994,106.0,29.101562
206.53334,432.266663,112.399994,29.101562
201.200012,427.200012,102.799995,29.101562
204.933334,431.866699,111.333328,29.101562
199.466675,427.333344,110.266663,29.105469
203.600006,431.199982,113.333328,29.101562
202.0,427.200012,104.399994,29.101562
205.066666,430.400024,111.466667,29.105469
197.46666,428.666656,106.800003,29.101562
203.199997,429.333344,112.133331,29.105469
202.0,435.333313,109.199997,29.101562
198.799988,425.600006,108.933334,29.101562
201.066666,433.866638,105.466675,29.101562
203.600006,431.600006,104.399994,29.101562
202.933334,428.666656,112.799995,29.101562
200.666672,427.733337,104.0,29.101562
202.0,431.733337,115.466675,29.101562
200.666672,429.733307,104.799995,29.101562
201.733337,428.133301,114.399994,29.101562
201.600006,429.466675,103.333328,29.101562
202.0,430.800018,114.0,29.101562
200.266663,430.133331,106.0,29.101562
205.733337,428.800018,116.26667,29.101562
204.133331,429.599976,99.733337,29.101562
203.46666,431.333344,113.599998,29.101562
201.200012,434.266663,104.266663,29.101562
202.933334,425.866669,110.800003,29.101562
199.333328,434.0,99.599998,29.101562
204.666672,423.733337,110.666664,29.101562
202.666656,434.799988,108.400002,29.101562
205.333328,424.933319,108.400002,29.105469
197.733322,435.333313,111.466667,29.101562
211.200012,423.866638,105.200005,29.101562
205.599991,433.066681,111.333328,29.101562
201.600006,425.600006,106.400002,29.101562
199.866653,435.733337,111.333328,29.101562
203.066681,422.533325,108.800003,29.101562
203.333344,432.400024,113.46666,29.101562
203.333344,425.466644,104.133331,29.101562
200.800003,434.933319,116.53334,29.101562
201.200012,424.399994,104.399994,29.101562
202.933334,432.266663,115.600006,29.101562
199.599991,426.266663,101.599998,29.101562
200.133347,433.200012,116.133339,29.101562
200.800003,434.799988,104.266663,29.101562
204.933334,424.799988,112.133331,29.101562
199.06665,435.733337,105.333336,29.101562
204.0,423.200012,113.866661,29.101562
200.666672,433.866638,105.466675,29.101562
209.466675,423.466675,107.600006,29.101562
198.266663,435.733337,109.599998,29.101562
201.866669,422.533325,111.599998,29.101562
200.666672,436.0,106.0,29.101562
204.266663,422.0,108.133331,29.101562
201.733337,437.200012,112.399994,29.105469
203.066681,422.0,110.666664,29.101562
202.266678,435.333313,104.933327,29.101562
201.466675,423.466675,102.666664,29.101562
205.733337,434.133331,112.533333,29.101562
200.533325,422.93335,109.866669,29.097656
202.133331,435.733337,109.066666,29.101562
200.400009,423.733337,102.0,29.101562
201.333328,435.066681,114.0,29.101562
198.266663,432.400024,101.066666,29.101562
204.133331,430.266693,117.466667,29.101562
199.333328,430.800018,103.866661,29.101562
202.399994,425.466644,115.333336,29.101562
202.933334,433.466675,99.599998,29.101562
202.53334,427.599976,119.866669,29.097656
201.466675,436.666687,104.799995,29.101562
203.46666,424.133331,112.666664,29.101562
201.866669,433.466675,102.666664,29.101562
204.533325,426.666687,117.200005,29.101562
201.600006,432.533325,106.400002,29.097656
202.0,424.0,114.266663,29.101562
198.266663,434.799988,103.066666,29.101562
204.533325,424.133331,116.400002,29.101562
204.400009,435.333313,105.333336,29.101562
201.066666,423.066681,113.066666,29.097656
202.399994,433.600006,104.799995,29.101562
202.0,426.666687,117.066666,29.097656
203.866669,433.866638,110.133331,29.101562
198.666672,430.93335,99.199997,29.101562
203.199997,424.799988,116.666672,29.097656
198.533325,433.600006,104.399994,29.101562
205.200012,422.799988,113.599998,29.097656
201.466675,436.133362,113.199997,29.101562
199.06665,423.600006,104.533325,29.101562
202.399994,434.0,111.066666,29.101562
199.466675,424.799988,99.733337,29.097656
205.866669,434.533356,116.800003,29.101562
199.733337,426.133362,103.46666,29.101562
202.53334,433.600006,111.73333,29.101562
202.399994,428.800018,99.599998,29.101562
208.266663,433.066681,115.066673,29.101562
198.133331,426.533325,103.199997,29.097656
204.933334,429.333344,112.399994,29.097656
198.799988,428.533325,98.933334,29.101562
204.666672,431.466675,116.26667,29.101562
198.266663,428.93335,100.800003,29.097656
203.866669,431.199982,114.0,29.097656
198.133331,430.93335,99.866669,29.097656
205.200012,429.866669,115.333336,29.101562
198.399994,430.666656,104.666664,29.101562
202.399994,430.800018,113.333328,29.097656
199.06665,432.93335,100.400002,29.101562
205.066666,427.866669,118.800003,29.097656
198.0,429.199982,100.933334,29.097656
203.333344,430.266693,116.26667,29.097656
200.400009,428.266663,99.599998,29.101562
206.0,429.466675,118.800003,29.101562
194.799988,434.799988,104.133331,29.101562
203.733337,430.666656,115.333336,29.101562
196.133331,432.799988,101.599998,29.101562
202.800003,422.400024,109.333336,29.101562
200.93335,434.399994,104.399994,29.097656
200.666672,424.666687,116.666672,29.097656
202.133331,436.399994,108.26667,29.101562
204.0,422.400024,111.199997,29.097656
202.266678,434.799988,105.200005,29.101562
200.800003,423.866638,118.666672,29.097656
202.0,435.066681,110.0,29.101562
201.733337,422.666656,111.599998,29.101562
198.799988,435.733337,105.333336,29.101562
203.333344,424.666687,115.200005,29.097656
201.066666,436.533325,109.466667,29.101562
198.266663,422.93335,109.199997,29.101562
202.399994,434.133331,107.333336,29.097656
201.466675,425.200012,112.933334,29.097656
202.53334,433.466675,111.599998,29.097656
200.800003,423.733337,111.066666,29.101562
204.933334,434.133331,103.333328,29.097656
202.0,425.333313,112.799995,29.097656
203.46666,435.200012,112.533333,29.101562
199.06665,425.733337,104.933327,29.097656
203.866669,431.06665,110.266663,29.101562
203.066681,426.533325,108.26667,29.097656
202.0,433.866638,113.066666,29.101562
197.866669,425.066681,106.0,29.097656
204.799988,433.200012,107.866669,29.101562
200.400009,425.200012,112.399994,29.097656
202.933334,430.266693,114.133331,29.097656
199.333328,429.866669,103.333328,29.097656
203.733337,430.400024,114.399994,29.101562
201.333328,427.200012,102.133331,29.097656
203.46666,427.466675,116.666672,29.101562
197.46666,429.599976,101.866669,29.101562
202.266678,431.466675,111.333328,29.101562
204.0,428.266663,104.533325,29.101562
208.266663,428.93335,113.599998,29.101562
200.533325,430.93335,102.933334,29.097656
203.600006,429.466675,113.599998,29.097656
202.0,429.466675,105.066673,29.101562
204.533325,426.799988,115.066673,29.101562
199.599991,431.333344,102.399994,29.097656
203.066681,428.533325,116.26667,29.097656
198.399994,431.333344,105.600006,29.097656
199.866653,422.93335,112.399994,29.097656
197.600006,432.666656,109.466667,29.101562
202.666656,424.933319,102.933334,29.097656
202.399994,433.066681,112.0,29.097656
202.399994,429.866669,101.466667,29.101562
201.066666,431.600006,116.53334,29.097656
203.733337,426.399994,105.333336,29.101562
201.066666,433.200012,113.199997,29.097656
201.333328,430.0,99.733337,29.097656
199.333328,430.266693,118.0,29.097656
203.866669,426.133362,102.533333,29.097656
201.066666,434.0,115.466675,29.101562
202.399994,430.533325,102.799995,29.097656
202.266678,430.93335,115.333336,29.097656
203.600006,427.200012,104.133331,29.097656
202.933334,433.066681,114.533325,29.101562
202.133331,431.06665,103.066666,29.101562
200.666672,430.133331,117.333336,29.101562
204.533325,428.266663,100.266663,29.097656
204.933334,430.0,114.133331,29.097656
201.200012,429.733307,102.0,29.101562
202.933334,430.0,116.26667,29.097656
203.066681,428.666656,100.533333,29.097656
203.866669,429.199982,115.733337,29.097656
197.199997,430.666656,103.599998,29.097656
204.533325,429.199982,113.333328,29.097656
196.266663,428.399994,103.73333,29.097656
204.933334,428.533325,112.933334,29.097656
200.533325,430.400024,101.599998,29.101562
205.466675,429.333344,112.666664,29.101562
198.133331,431.866699,104.0,29.101562
201.466675,426.933319,106.400002,29.101562
205.599991,430.93335,114.0,29.101562
200.800003,429.866669,105.866669,29.101562
203.066681,427.866669,113.333328,29.101562
197.733322,429.733307,108.666672,29.097656
205.066666,429.199982,111.866669,29.097656
200.0,430.666656,104.666664,29.097656
201.733337,427.06665,112.0,29.097656
202.666656,430.666656,105.200005,29.097656
206.266663,426.933319,111.066666,29.097656
202.0,432.266663,107.466667,29.097656
202.666656,427.866669,111.73333,29.097656
202.133331,429.733307,102.933334,29.097656
205.066666,425.733337,108.400002,29.097656
203.46666,429.466675,107.733337,29.097656
202.266678,428.93335,104.133331,29.097656
201.733337,432.400024,112.666664,29.097656
202.0,428.93335,104.666664,29.097656
202.399994,430.666656,111.066666,29.097656
200.666672,428.0,103.73333,29.097656
202.666656,430.0,110.933334,29.097656
200.800003,428.399994,104.666664,29.101562
203.600006,428.399994,113.866661,29.097656
201.200012,428.133301,104.0,29.101562
203.333344,429.466675,111.333328,29.097656
203.46666,429.333344,105.066673,29.101562
201.333328,430.533325,111.599998,29.097656
203.333344,427.733337,104.266663,29.097656
203.600006,428.93335,109.333336,29.097656
200.93335,429.733307,109.066666,29.097656
204.266663,428.800018,109.066666,29.097656
200.666672,429.733307,110.400002,29.097656
201.733337,430.533325,109.866669,29.097656
198.799988,429.599976,112.266663,29.097656
204.533325,429.866669,109.466667,29.097656
199.466675,431.600006,108.933334,29.097656
203.199997,429.06665,108.533333,29.097656
202.933334,429.733307,109.599998,29.097656
199.199997,427.599976,108.666672,29.097656
203.600006,430.133331,110.800003,29.097656
202.266678,429.06665,107.333336,29.097656
198.666672,429.06665,112.799995,29.097656
202.933334,430.133331,106.0,29.097656
202.53334,428.266663,109.866669,29.097656
200.666672,431.733337,109.333336,29.097656
203.600006,430.266693,110.133331,29.097656
201.333328,426.266663,106.400002,29.097656
201.200012,426.133362,108.26667,29.097656
201.200012,431.199982,108.666672,29.097656
208.0,430.400024,106.800003,29.097656
200.533325,429.333344,111.466667,29.097656
202.0,428.93335,105.733337,29.097656
201.600006,427.06665,106.933334,29.097656
202.133331,432.0,110.266663,29.097656
202.666656,425.866669,105.600006,29.097656
201.866669,432.266663,111.466667,29.097656
200.0,427.06665,109.599998,29.097656
203.199997,431.866699,110.533333,29.097656
200.533325,426.666687,104.533325,29.097656
206.133331,431.866699,110.266663,29.097656
196.800003,428.0,111.066666,29.097656
203.199997,431.600006,110.933334,29.097656
202.133331,426.666687,108.533333,29.101562
203.733337,431.199982,111.599998,29.097656
200.400009,428.666656,109.333336,29.097656
205.599991,430.666656,110.666664,29.097656
201.466675,428.0,106.933334,29.097656
204.666672,429.333344,108.26667,29.097656
197.733322,428.666656,110.533333,29.097656
204.533325,429.06665,108.933334,29.097656
199.733337,429.333344,108.133331,29.097656
204.400009,428.0,110.266663,29.097656
199.599991,430.666656,107.866669,29.097656
206.133331,428.266663,109.199997,29.097656
203.866669,431.733337,107.466667,29.097656
204.0,424.933319,109.199997,29.097656
200.666672,431.600006,106.800003,29.097656
203.333344,426.533325,105.466675,29.097656
199.866653,432.799988,108.0,29.097656
203.066681,426.0,107.733337,29.097656
202.0,432.93335,106.0,29.097656
204.400009,424.399994,107.600006,29.097656
199.466675,435.466644,110.0,29.097656
201.733337,425.066681,108.26667,29.097656
200.93335,433.733337,106.53334,29.097656
202.800003,425.066681,104.799995,29.097656
200.533325,434.266663,109.599998,29.097656
198.666672,425.866669,110.0,29.097656
205.599991,433.733337,104.933327,29.097656
201.200012,427.06665,106.666672,29.097656
203.199997,436.399994,110.666664,29.097656
202.933334,424.666687,109.333336,29.097656
203.733337,434.133331,104.666664,29.097656
202.800003,424.799988,105.733337,29.097656
202.800003,435.866669,109.866669,29.097656
200.400009,425.066681,110.933334,29.097656
202.399994,434.533356,105.066673,29.097656
204.0,423.866638,105.200005,29.097656
204.133331,426.933319,112.533333,29.09375
202.399994,429.466675,101.599998,29.097656
201.466675,431.600006,113.73333,29.097656
199.466675,431.466675,104.399994,29.097656
202.399994,427.866669,112.933334,29.097656
201.733337,430.400024,104.0,29.097656
202.133331,430.800018,117.200005,29.097656
200.133347,432.533325,105.466675,29.09375
202.800003,426.933319,114.399994,29.097656
201.200012,430.533325,103.199997,29.097656
202.266678,430.800018,115.066673,29.097656
199.466675,434.0,104.533325,29.097656
204.266663,426.533325,113.866661,29.097656
202.666656,431.199982,102.0,29.097656
200.666672,430.533325,116.53334,29.097656
202.800003,434.399994,105.066673,29.097656
199.866653,426.133362,115.733337,29.097656
203.866669,431.199982,98.666672,29.097656
200.533325,430.266693,115.600006,29.097656
201.600006,435.600006,104.533325,29.097656
202.933334,424.133331,112.799995,29.097656
201.466675,432.0,102.933334,29.097656
202.266678,429.733307,116.400002,29.097656
200.533325,436.133362,105.333336,29.097656
200.400009,425.200012,116.800003,29.097656
199.866653,433.200012,100.666664,29.097656
202.266678,427.200012,118.666672,29.097656
203.46666,434.933319,106.133339,29.097656
200.133347,424.933319,114.0,29.097656
202.266678,430.666656,100.933334,29.097656
203.733337,427.733337,114.266663,29.097656
201.200012,435.333313,106.133339,29.097656
203.333344,424.133331,112.666664,29.097656
204.0,434.133331,99.199997,29.097656
203.333344,426.666687,119.599998,29.097656
202.399994,436.266663,106.400002,29.097656
201.466675,424.133331,112.266663,29.097656
200.800003,432.400024,102.266663,29.097656
201.066666,426.533325,115.866669,29.097656
202.266678,435.600006,111.466667,29.09375
200.93335,424.266663,110.133331,29.097656
199.199997,433.333313,106.666672,29.097656
205.066666,424.0,115.066673,29.097656
207.600006,435.066681,107.200005,29.097656
197.733322,422.133331,115.200005,29.097656
200.400009,433.333313,104.666664,29.09375
204.133331,425.200012,115.066673,29.097656
204.266663,434.533356,110.133331,29.097656
201.600006,424.666687,109.333336,29.097656
201.333328,433.466675,108.400002,29.097656
200.800003,424.933319,113.73333,29.09375
204.933334,435.066681,108.133331,29.097656
196.800003,423.466675,110.533333,29.097656
201.200012,433.600006,103.73333,29.097656
203.866669,424.533356,112.0,29.097656
200.533325,432.400024,113.066666,29.097656
201.600006,426.266663,104.933327,29.097656
199.733337,433.466675,111.066666,29.097656
203.866669,424.0,106.666672,29.09375
206.800003,427.06665,115.066673,29.097656
200.133347,426.933319,102.266663,29.097656
201.200012,434.0,115.600006,29.097656
204.799988,424.399994,100.266663,29.097656
203.866669,429.199982,116.53334,29.097656
200.133347,427.333344,102.666664,29.097656
203.46666,433.333313,112.933334,29.09375
203.46666,423.600006,103.333328,29.097656
202.53334,429.733307,116.133339,29.097656
201.600006,429.466675,99.866669,29.097656
200.800003,432.0,117.466667,29.097656
203.733337,425.733337,97.600006,29.097656
205.466675,430.400024,116.26667,29.097656
200.400009,434.0,101.73333,29.09375
202.53334,426.133362,116.800003,29.097656
198.0,434.0,100.800003,29.097656
200.93335,424.533356,112.399994,29.097656
200.0,434.133331,105.200005,29.097656
204.533325,422.533325,113.73333,29.097656
198.133331,433.866638,106.26667,29.097656
203.600006,423.600006,106.0,29.097656
199.06665,434.799988,108.533333,29.097656
205.866669,421.466675,111.866669,29.097656
200.533325,435.466644,110.666664,29.09375
201.466675,421.866699,100.666664,29.097656
200.533325,435.333313,115.200005,29.097656
201.066666,423.866638,103.73333,29.097656
202.53334,433.066681,111.866669,29.097656
202.666656,434.666687,106.26667,29.09375
206.266663,427.200012,116.53334,29.097656
198.266663,432.133331,104.266663,29.09375
201.866669,429.466675,116.0,29.097656
198.933334,432.93335,100.800003,29.097656
202.0,425.333313,110.800003,29.097656
203.199997,433.466675,105.200005,29.097656
201.600006,425.466644,115.733337,29.09375
205.466675,434.933319,110.666664,29.097656
198.399994,423.600006,111.333328,29.097656
206.933319,434.133331,104.799995,29.09375
204.533325,424.0,115.733337,29.097656
204.0,433.466675,111.73333,29.09375
201.466675,425.200012,105.066673,29.097656
200.0,432.533325,109.066666,29.097656
202.933334,425.066681,108.666672,29.097656
205.466675,431.733337,113.599998,29.097656
200.133347,431.199982,100.266663,29.09375
202.53334,429.466675,121.066666,29.097656
199.333328,430.0,98.133331,29.09375
201.866669,426.133362,120.0,29.097656
201.066666,431.466675,100.133331,29.097656
205.200012,429.466675,119.466667,29.097656
199.733337,430.93335,101.199997,29.097656
205.599991,426.266663,115.733337,29.097656
200.400009,428.399994,102.0,29.097656
202.800003,427.333344,117.200005,29.097656
196.133331,433.200012,103.73333,29.09375
204.400009,424.933319,115.600006,29.097656
198.933334,432.533325,104.0,29.09375
204.533325,426.399994,115.733337,29.09375
197.733322,434.399994,102.933334,29.097656
203.866669,426.0,111.333328,29.097656
200.93335,432.666656,105.466675,29.09375
205.466675,425.600006,113.599998,29.09375
200.400009,434.266663,102.266663,29.09375
204.533325,425.466644,109.733337,29.09375
196.53334,433.600006,109.199997,29.097656
205.466675,424.933319,110.0,29.09375
199.06665,432.533325,105.866669,29.097656
203.46666,424.933319,107.066666,29.09375
201.066666,433.600006,108.400002,29.097656
203.866669,422.533325,109.466667,29.097656
201.466675,435.733337,108.800003,29.097656
200.533325,426.933319,103.066666,29.097656
200.133347,432.799988,115.466675,29.09375
200.0,426.0,102.666664,29.097656
204.133331,433.600006,108.800003,29.09375
202.800003,427.06665,101.866669,29.097656
203.199997,433.200012,114.666664,29.09375
201.600006,425.733337,102.666664,29.097656
201.466675,433.600006,113.599998,29.09375
200.93335,427.866669,100.533333,29.097656
199.733337,432.0,117.600006,29.09375
199.199997,428.0,103.199997,29.09375
204.933334,432.133331,112.0,29.09375
204.0,427.866669,98.133331,29.09375
200.0,432.799988,115.733337,29.097656
201.733337,426.399994,100.533333,29.09375
203.600006,432.533325,112.533333,29.09375
203.733337,428.133301,100.400002,29.097656
199.199997,431.333344,115.600006,29.09375
201.466675,426.933319,103.73333,29.09375
204.266663,432.400024,113.066666,29.097656
202.933334,429.333344,98.400002,29.09375
203.600006,429.866669,116.0,29.09375
200.666672,428.133301,102.533333,29.09375
202.933334,430.533325,111.466667,29.09375
200.93335,428.399994,100.933334,29.09375
202.53334,430.133331,114.799995,29.09375
201.066666,429.06665,102.533333,29.09375
204.799988,429.199982,114.133331,29.09375
197.066666,429.733307,100.400002,29.09375
205.599991,428.93335,113.599998,29.09375
197.866669,430.266693,103.066666,29.09375
202.800003,427.599976,113.599998,29.09375
202.53334,430.133331,102.666664,29.09375
204.933334,428.399994,112.933334,29.097656
199.866653,431.600006,106.53334,29.09375
204.400009,426.399994,112.533333,29.09375
199.06665,432.0,104.799995,29.09375
206.133331,427.599976,107.466667,29.09375
198.799988,432.0,107.066666,29.09375
200.533325,427.866669,111.066666,29.09375
200.266663,432.799988,111.333328,29.09375
202.266678,427.200012,107.200005,29.09375
202.933334,432.0,109.599998,29.09375
203.333344,428.800018,104.799995,29.09375
203.199997,423.733337,112.133331,29.09375
199.733337,431.199982,104.533325,29.09375
202.399994,428.0,112.399994,29.09375
205.333328,429.599976,102.533333,29.097656
204.933334,428.399994,110.800003,29.09375
199.06665,431.466675,104.933327,29.09375
201.866669,429.06665,112.933334,29.09375
199.333328,428.399994,103.73333,29.09375
202.266678,427.06665,111.599998,29.09375
201.333328,429.599976,104.799995,29.09375
202.266678,429.333344,112.133331,29.09375
198.666672,434.0,107.333336,29.09375
204.266663,430.0,109.733337,29.09375
196.666656,430.800018,109.866669,29.09375
204.400009,428.0,108.133331,29.09375
201.600006,432.799988,109.333336,29.09375
205.333328,430.800018,107.866669,29.09375
201.333328,431.733337,112.533333,29.09375
199.866653,428.800018,104.533325,29.097656
203.46666,429.599976,112.0,29.09375
200.133347,429.06665,101.466667,29.09375
202.399994,429.333344,114.399994,29.09375
198.933334,428.133301,106.666672,29.09375
206.399994,428.800018,110.266663,29.097656
200.400009,428.800018,104.399994,29.09375
203.600006,429.466675,111.599998,29.09375
200.533325,430.533325,103.199997,29.09375
203.333344,426.799988,110.666664,29.09375
202.266678,431.600006,107.866669,29.09375
202.800003,429.599976,106.53334,29.09375
197.866669,430.800018,110.400002,29.09375
198.133331,429.199982,109.199997,29.09375
199.199997,431.333344,107.466667,29.097656
200.133347,429.466675,108.533333,29.09375
201.066666,430.93335,107.733337,29.097656
201.733337,431.466675,108.533333,29.09375
200.93335,427.866669,110.400002,29.097656
203.333344,429.866669,109.066666,29.09375
202.0,429.599976,109.866669,29.09375
206.666656,430.0,106.800003,29.09375
200.266663,428.666656,106.666672,29.09375
203.066681,430.93335,108.26667,29.09375
198.799988,426.133362,108.533333,29.09375
202.933334,429.599976,108.0,29.09375
201.866669,434.666687,112.0,29.09375
201.866669,431.199982,109.599998,29.09375
200.800003,426.266663,107.066666,29.09375
204.933334,430.133331,108.933334,29.09375
202.800003,429.06665,105.600006,29.09375
202.666656,428.93335,103.73333,29.09375
201.866669,432.266663,109.466667,29.09375
200.266663,426.933319,106.800003,29.09375
197.199997,433.333313,109.599998,29.09375
199.866653,426.533325,106.800003,29.09375
202.0,434.0,110.533333,29.09375
198.799988,427.333344,106.666672,29.09375
205.066666,429.333344,106.133339,29.09375
199.599991,428.800018,113.066666,29.09375
201.466675,428.399994,107.066666,29.09375
201.733337,428.666656,105.466675,29.09375
201.466675,426.799988,107.200005,29.09375
200.533325,429.199982,110.266663,29.09375
200.133347,427.599976,111.199997,29.09375
202.53334,429.866669,109.466667,29.09375
202.399994,428.800018,109.199997,29.09375
199.733337,430.0,109.066666,29.09375
203.066681,430.0,107.600006,29.09375
204.266663,428.533325,106.53334,29.09375
203.600006,426.933319,108.933334,29.09375
201.066666,430.400024,108.26667,29.09375
202.133331,428.533325,110.266663,29.09375
200.533325,430.133331,108.400002,29.09375
201.333328,427.466675,109.199997,29.09375
200.133347,430.133331,107.200005,29.09375
202.53334,428.0,109.199997,29.09375
205.200012,428.533325,105.200005,29.09375
204.266663,427.599976,106.666672,29.09375
204.533325,429.466675,107.466667,29.09375
201.466675,428.266663,110.133331,29.09375
200.400009,428.533325,106.26667,29.09375
202.53334,422.93335,108.533333,29.089844
202.266678,432.133331,106.933334,29.09375
202.53334,428.133301,111.333328,29.09375
201.600006,428.533325,106.666672,29.09375
201.333328,427.333344,108.400002,29.09375
204.533325,432.133331,105.066673,29.09375
200.0,428.0,114.266663,29.09375
202.800003,428.266663,102.666664,29.09375
201.333328,426.133362,108.400002,29.09375
202.933334,432.0,105.866669,29.09375
201.866669,428.399994,110.266663,29.09375
201.200012,429.199982,105.600006,29.09375
200.800003,426.0,108.666672,29.09375
205.066666,433.200012,106.133339,29.09375
200.533325,427.06665,112.0,29.09375
201.200012,431.466675,102.399994,29.09375
197.733322,426.666687,108.666672,29.09375
200.0,432.799988,109.866669,29.09375
201.466675,428.0,110.800003,29.09375
201.733337,432.266663,106.933334,29.09375
200.800003,427.333344,107.733337,29.09375
202.933334,432.533325,108.800003,29.09375
204.400009,426.133362,110.533333,29.09375
205.599991,433.066681,112.933334,29.09375
203.333344,426.266663,101.466667,29.09375
203.733337,431.733337,114.266663,29.09375
202.53334,426.266663,104.133331,29.089844
201.466675,433.733337,114.133331,29.089844
201.333328,429.333344,103.333328,29.09375
202.800003,430.533325,115.200005,29.09375
200.400009,436.266663,106.666672,29.09375
203.46666,425.333313,107.066666,29.089844
200.800003,435.066681,111.199997,29.09375
200.666672,425.066681,105.333336,29.09375
204.400009,428.266663,114.266663,29.089844
202.933334,429.06665,105.733337,29.089844
205.333328,426.533325,112.533333,29.089844
201.333328,432.0,104.399994,29.089844
203.866669,427.599976,112.799995,29.09375
198.933334,428.266663,104.666664,29.089844
208.666672,427.599976,110.533333,29.09375
201.466675,430.666656,106.26667,29.09375
202.933334,431.466675,111.333328,29.09375
200.800003,428.533325,104.399994,29.09375
202.266678,427.06665,113.599998,29.09375
199.866653,431.866699,105.733337,29.09375
206.0,428.266663,114.399994,29.089844
202.666656,429.866669,103.46666,29.09375
204.666672,424.799988,112.399994,29.09375
202.266678,432.533325,105.066673,29.09375
203.600006,427.866669,114.933327,29.09375
204.799988,437.599976,104.266663,29.09375
203.46666,423.200012,112.133331,29.09375
201.200012,433.600006,103.599998,29.089844
202.266678,427.466675,111.866669,29.089844
202.399994,434.799988,115.733337,29.09375
199.333328,435.600006,107.600006,29.09375
203.46666,422.666656,110.533333,29.09375
199.599991,435.333313,109.466667,29.089844
201.466675,424.533356,111.199997,29.089844
198.533325,435.600006,110.800003,29.09375
204.133331,421.733337,108.666672,29.09375
202.0,436.799988,107.733337,29.09375
206.266663,423.333313,112.533333,29.089844
201.466675,436.666687,110.666664,29.09375
202.0,421.06665,109.333336,29.089844
197.866669,437.333344,106.933334,29.09375
204.933334,424.0,109.199997,29.089844
198.533325,435.200012,107.333336,29.09375
207.199997,424.0,109.466667,29.089844
199.733337,436.266663,105.333336,29.089844
204.666672,423.066681,114.0,29.09375
200.533325,434.266663,105.733337,29.089844
205.066666,423.600006,113.73333,29.089844
198.533325,436.399994,105.200005,29.089844
204.666672,423.200012,112.399994,29.09375
200.666672,433.733337,111.199997,29.089844
203.199997,422.799988,108.533333,29.09375
201.333328,436.0,109.599998,29.089844
203.733337,421.333344,110.800003,29.089844
200.400009,435.066681,111.066666,29.089844
200.266663,421.466675,108.133331,29.089844
198.933334,437.200012,110.266663,29.089844
200.93335,421.866699,111.73333,29.089844
205.466675,436.399994,111.599998,29.089844
199.06665,432.266663,105.333336,29.09375
202.53334,430.133331,116.400002,29.089844
203.600006,430.0,99.199997,29.09375
202.53334,423.466675,114.666664,29.09375
200.93335,435.200012,100.933334,29.089844
204.400009,426.666687,115.333336,29.089844
199.599991,429.733307,100.933334,29.089844
204.266663,422.799988,115.466675,29.09375
199.333328,435.200012,102.933334,29.089844
201.200012,427.466675,118.533333,29.09375
203.066681,432.0,97.466667,29.09375
205.733337,423.866638,113.333328,29.089844
200.133347,435.600006,102.799995,29.089844
203.866669,426.133362,117.466667,29.089844
201.066666,431.733337,98.666672,29.089844
203.333344,422.0,112.133331,29.09375
202.800003,433.066681,110.800003,29.089844
201.066666,423.866638,103.333328,29.09375
207.600006,429.733307,115.200005,29.089844
198.933334,434.399994,100.0,29.09375
208.266663,426.799988,117.200005,29.089844
197.066666,432.266663,100.0,29.089844
204.533325,428.266663,118.800003,29.089844
196.800003,435.733337,106.400002,29.089844
204.400009,421.199982,111.866669,29.09375
199.866653,436.266663,104.933327,29.089844
203.600006,422.533325,115.733337,29.089844
199.733337,435.333313,112.133331,29.09375
203.866669,422.266663,107.600006,29.09375
207.333344,435.066681,106.800003,29.089844
203.46666,422.666656,113.46666,29.089844
202.133331,436.399994,111.599998,29.089844
202.666656,421.866699,106.0,29.089844
202.53334,436.133362,108.26667,29.089844
201.066666,423.600006,111.066666,29.089844
204.400009,425.600006,116.933334,29.089844
200.533325,433.333313,101.599998,29.089844
201.466675,429.333344,116.666672,29.089844
200.133347,428.133301,99.466667,29.089844
208.266663,426.666687,116.666672,29.089844
199.199997,432.266663,100.133331,29.089844
201.600006,430.0,117.333336,29.089844
201.333328,428.93335,104.799995,29.089844
205.466675,426.799988,117.333336,29.089844
200.93335,432.666656,102.933334,29.089844
201.733337,428.533325,116.26667,29.089844
203.733337,429.733307,97.466667,29.089844
204.933334,426.666687,114.666664,29.089844
200.266663,433.066681,100.533333,29.089844
202.53334,429.333344,118.26667,29.089844
202.266678,429.333344,99.866669,29.089844
202.266678,424.933319,110.400002,29.089844
200.133347,432.666656,105.200005,29.09375
204.933334,423.600006,110.266663,29.089844
194.0,433.200012,106.800003,29.089844
206.666656,424.933319,109.466667,29.089844
200.0,433.333313,106.800003,29.089844
204.533325,424.533356,110.400002,29.089844
199.333328,435.200012,107.066666,29.089844
202.53334,427.733337,101.866669,29.089844
199.599991,434.0,113.866661,29.089844
201.866669,424.0,102.666664,29.089844
202.0,435.200012,113.199997,29.089844
203.199997,427.599976,99.866669,29.089844
198.266663,432.799988,116.400002,29.089844
204.799988,424.933319,101.199997,29.085938
202.266678,435.333313,111.466667,29.089844
202.266678,427.866669,101.066666,29.089844
203.46666,432.93335,118.0,29.089844
200.133347,428.266663,100.533333,29.085938
205.466675,431.199982,114.666664,29.085938
194.0,430.93335,100.133331,29.089844
208.133331,428.666656,115.866669,29.089844
197.333344,430.400024,102.666664,29.089844
205.466675,428.93335,114.799995,29.089844
202.266678,434.133331,111.866669,29.09375
202.133331,425.066681,107.733337,29.089844
202.53334,432.799988,109.333336,29.089844
200.666672,425.333313,112.666664,29.089844
200.0,434.933319,110.400002,29.089844
202.933334,423.866638,108.133331,29.089844
204.0,433.866638,104.666664,29.089844
202.0,421.466675,114.0,29.085938
208.399994,433.200012,110.666664,29.089844
202.133331,425.866669,105.733337,29.089844
203.333344,431.600006,108.0,29.089844
205.200012,428.0,111.066666,29.089844
202.0,427.06665,115.066673,29.089844
201.200012,430.266693,100.666664,29.085938
202.133331,430.0,116.800003,29.089844
199.599991,429.733307,101.199997,29.089844
200.93335,427.06665,116.666672,29.085938
202.800003,431.466675,98.400002,29.089844
202.53334,429.333344,116.53334,29.085938
200.666672,430.266693,101.199997,29.085938
206.666656,428.800018,112.933334,29.089844
200.666672,430.93335,103.599998,29.089844
203.866669,425.466644,114.266663,29.089844
200.800003,431.199982,101.466667,29.089844
203.46666,428.666656,106.0,29.089844
198.799988,431.06665,111.466667,29.089844
197.733322,429.599976,106.26667,29.085938
204.933334,428.93335,108.0,29.085938
199.466675,429.599976,102.533333,29.089844
202.266678,428.266663,113.73333,29.089844
199.333328,430.93335,102.266663,29.085938
203.733337,427.200012,112.933334,29.089844
198.399994,429.866669,103.599998,29.089844
206.933319,428.533325,111.066666,29.089844
199.733337,430.266693,106.800003,29.089844
203.066681,427.333344,110.0,29.085938
203.866669,430.93335,104.399994,29.089844
205.066666,422.666656,111.599998,29.085938
202.266678,431.733337,105.733337,29.085938
203.066681,426.533325,110.666664,29.089844
200.266663,431.600006,105.866669,29.089844
203.46666,425.866669,110.400002,29.089844
202.266678,431.600006,106.933334,29.089844
199.199997,428.800018,113.066666,29.089844
200.266663,430.93335,109.866669,29.089844
201.200012,428.133301,110.933334,29.089844
202.53334,430.400024,105.200005,29.089844
201.866669,429.333344,111.199997,29.089844
200.400009,432.0,107.066666,29.089844
203.733337,428.0,110.933334,29.089844
201.733337,430.800018,106.666672,29.085938
198.133331,429.199982,110.666664,29.085938
203.866669,426.933319,110.533333,29.089844
201.733337,430.800018,113.066666,29.085938
200.800003,428.0,109.866669,29.085938
199.733337,431.466675,111.73333,29.085938
203.333344,429.199982,109.466667,29.089844
201.333328,432.266663,110.133331,29.089844
200.133347,427.599976,107.733337,29.089844
202.266678,432.93335,110.800003,29.089844
202.666656,428.266663,106.133339,29.089844
198.799988,430.400024,113.066666,29.085938
202.266678,428.133301,105.066673,29.089844
205.599991,432.0,110.533333,29.085938
200.533325,426.533325,108.666672,29.085938
199.733337,432.400024,110.400002,29.085938
199.06665,427.333344,108.666672,29.085938
202.0,431.733337,110.266663,29.089844
203.066681,426.399994,107.866669,29.089844
204.133331,431.466675,107.866669,29.085938
199.466675,428.0,108.800003,29.089844
207.199997,431.199982,106.800003,29.089844
201.600006,425.200012,107.600006,29.085938
204.933334,431.600006,108.533333,29.089844
199.06665,428.133301,110.533333,29.089844
202.0,433.866638,109.333336,29.089844
202.933334,426.533325,107.600006,29.089844
204.0,430.93335,109.466667,29.089844
197.866669,427.599976,109.333336,29.085938
206.266663,431.333344,107.333336,29.089844
200.0,428.0,106.53334,29.085938
206.133331,430.533325,109.333336,29.089844
201.333328,428.133301,107.333336,29.085938
205.733337,429.06665,107.600006,29.085938
201.466675,427.866669,107.066666,29.089844
203.866669,425.600006,107.866669,29.089844
202.0,431.199982,108.400002,29.089844
203.199997,426.933319,108.0,29.089844
199.866653,431.466675,110.800003,29.085938
203.733337,427.06665,104.266663,29.085938
203.46666,431.466675,105.733337,29.085938
201.466675,429.06665,110.533333,29.085938
205.733337,432.400024,110.400002,29.089844
200.400009,428.800018,108.400002,29.089844
202.800003,432.93335,108.933334,29.085938
198.799988,428.800018,111.73333,29.089844
203.600006,430.666656,110.533333,29.089844
200.666672,427.599976,112.0,29.085938
201.066666,431.866699,106.26667,29.089844
202.399994,427.733337,107.733337,29.085938
203.733337,430.266693,110.800003,29.089844
198.933334,426.933319,108.800003,29.085938
203.199997,431.733337,109.866669,29.089844
203.46666,428.399994,109.333336,29.085938
204.933334,432.400024,111.199997,29.085938
205.333328,428.399994,109.199997,29.085938
201.866669,432.799988,107.200005,29.085938
202.666656,426.666687,107.733337,29.085938
204.0,426.933319,111.333328,29.085938
201.466675,428.0,108.133331,29.089844
203.066681,432.799988,110.133331,29.089844
203.199997,425.066681,106.26667,29.085938
203.733337,429.333344,111.73333,29.085938
202.666656,428.266663,106.800003,29.085938
201.733337,432.799988,114.666664,29.089844
203.866669,424.799988,103.333328,29.085938
200.800003,429.733307,113.866661,29.085938
203.866669,427.06665,100.933334,29.085938
202.133331,432.666656,111.866669,29.085938
200.533325,424.399994,103.46666,29.089844
200.666672,428.93335,113.46666,29.089844
201.333328,427.733337,103.066666,29.089844
204.266663,431.866699,115.733337,29.089844
201.733337,426.799988,103.46666,29.085938
206.933319,427.866669,116.400002,29.085938
201.866669,430.0,100.133331,29.085938
206.0,429.333344,113.866661,29.085938
202.133331,435.200012,106.26667,29.085938
203.866669,423.733337,107.066666,29.085938
200.533325,436.799988,108.800003,29.085938
201.333328,423.066681,108.933334,29.085938
200.800003,436.133362,108.666672,29.085938
202.266678,423.066681,105.733337,29.089844
201.333328,435.466644,114.266663,29.085938
200.400009,424.266663,107.733337,29.085938
199.866653,434.266663,105.866669,29.085938
204.533325,423.600006,108.533333,29.085938
199.599991,436.666687,107.866669,29.085938
201.600006,422.266663,110.133331,29.085938
202.800003,436.266663,106.666672,29.085938
207.600006,423.066681,106.400002,29.085938
200.533325,437.200012,111.066666,29.085938
201.466675,423.333313,105.600006,29.089844
200.400009,434.133331,115.466675,29.085938
198.266663,432.266663,105.600006,29.085938
204.266663,427.200012,114.533325,29.085938
199.466675,431.199982,102.799995,29.085938
204.266663,428.666656,113.46666,29.085938
200.800003,434.933319,103.73333,29.085938
204.266663,425.466644,114.133331,29.085938
201.466675,432.400024,101.866669,29.089844
201.733337,428.399994,118.133331,29.085938
203.733337,435.333313,103.866661,29.085938
201.866669,425.066681,116.133339,29.085938
202.800003,432.0,101.73333,29.085938
201.333328,429.599976,117.600006,29.085938
204.533325,436.0,104.666664,29.085938
202.800003,425.466644,108.0,29.085938
200.400009,434.933319,108.133331,29.085938
203.199997,422.533325,107.466667,29.085938
201.066666,433.466675,112.933334,29.085938
204.533325,425.200012,102.666664,29.085938
199.733337,433.600006,114.399994,29.085938
201.600006,422.0,104.0,29.085938
203.199997,432.400024,115.466675,29.085938
201.333328,425.600006,102.266663,29.085938
202.933334,434.799988,114.266663,29.085938
200.133347,423.200012,102.799995,29.085938
207.199997,431.600006,117.066666,29.089844
202.800003,427.866669,98.800003,29.085938
203.066681,433.333313,117.866669,29.085938
198.266663,425.200012,100.533333,29.085938
202.399994,430.93335,117.200005,29.085938
200.533325,424.533356,99.599998,29.085938
204.266663,434.0,115.733337,29.085938
197.066666,427.200012,100.666664,29.085938
204.533325,430.0,118.800003,29.085938
199.333328,429.733307,99.333336,29.085938
204.933334,430.93335,116.133339,29.085938
197.199997,429.06665,103.333328,29.085938
204.666672,426.533325,117.333336,29.082031
196.266663,432.666656,100.800003,29.085938
205.333328,426.799988,116.53334,29.085938
197.199997,433.066681,101.599998,29.085938
204.533325,425.466644,115.866669,29.085938
197.866669,434.799988,101.599998,29.085938
203.46666,424.933319,118.26667,29.085938
197.733322,432.799988,103.46666,29.082031
206.666656,424.399994,117.066666,29.085938
203.333344,435.466644,108.800003,29.085938
202.266678,423.066681,109.733337,29.085938
200.400009,434.133331,105.866669,29.085938
202.0,422.400024,104.266663,29.085938
201.466675,435.333313,110.933334,29.085938
202.666656,423.600006,108.133331,29.085938
202.133331,432.799988,106.800003,29.085938
194.400009,426.666687,103.46666,29.085938
204.533325,432.266663,109.466667,29.085938
200.533325,424.933319,107.066666,29.085938
200.800003,432.133331,107.733337,29.085938
198.266663,429.599976,100.400002,29.085938
203.866669,426.533325,115.333336,29.085938
199.599991,430.266693,99.466667,29.085938
204.400009,429.333344,120.0,29.085938
201.600006,434.666687,102.0,29.085938
202.0,426.399994,120.933334,29.085938
200.0,434.933319,111.599998,29.085938
203.733337,422.533325,106.666672,29.085938
204.533325,433.866638,112.799995,29.085938
202.933334,424.266663,106.800003,29.085938
199.733337,436.0,110.266663,29.085938
204.933334,422.0,110.133331,29.085938
201.866669,433.066681,111.73333,29.085938
203.733337,423.066681,104.666664,29.085938
200.93335,434.933319,112.666664,29.085938
198.666672,423.600006,106.400002,29.085938
198.933334,432.533325,118.533333,29.085938
202.133331,424.933319,101.866669,29.085938
201.333328,434.133331,110.0,29.085938
202.666656,422.93335,106.400002,29.085938
202.399994,433.333313,115.200005,29.085938
200.533325,424.933319,102.399994,29.085938
201.866669,435.333313,112.0,29.089844
200.666672,423.600006,105.600006,29.085938
206.800003,426.266663,113.333328,29.085938
194.533325,433.333313,105.600006,29.085938
204.533325,425.066681,114.533325,29.085938
201.333328,433.200012,102.0,29.085938
205.200012,422.93335,112.533333,29.085938
200.800003,435.333313,105.733337,29.085938
205.733337,424.933319,116.0,29.085938
199.199997,432.799988,101.866669,29.085938
205.866669,424.666687,109.866669,29.085938
204.266663,433.066681,107.066666,29.085938
204.666672,426.0,108.533333,29.085938
201.600006,432.93335,111.73333,29.085938
199.733337,430.93335,102.666664,29.085938
202.933334,429.733307,115.200005,29.085938
202.933334,428.533325,102.0,29.085938
200.133347,432.666656,114.666664,29.085938
203.333344,432.0,101.599998,29.085938
206.933319,426.666687,113.333328,29.085938
198.933334,432.533325,106.133339,29.085938
207.733322,426.533325,111.73333,29.082031
200.93335,431.466675,104.0,29.085938
204.933334,427.866669,111.199997,29.085938
199.466675,432.666656,104.666664,29.085938
198.666672,429.866669,106.26667,29.085938
205.866669,429.06665,115.200005,29.085938
199.733337,430.533325,101.73333,29.082031
204.0,428.800018,112.533333,29.082031
202.133331,431.333344,100.933334,29.085938
199.866653,427.200012,111.73333,29.085938
203.46666,431.06665,107.866669,29.082031
204.400009,428.800018,114.0,29.085938
201.200012,430.400024,103.599998,29.082031
203.600006,428.399994,108.933334,29.085938
202.933334,430.533325,108.400002,29.085938
204.666672,429.599976,112.533333,29.085938
199.199997,431.199982,105.066673,29.082031
199.06665,428.800018,111.199997,29.085938
199.733337,430.800018,108.533333,29.085938
201.333328,430.0,109.599998,29.085938
198.266663,432.133331,109.333336,29.082031
204.266663,430.666656,106.933334,29.085938
199.199997,429.333344,111.599998,29.085938
204.266663,428.800018,105.066673,29.085938
200.800003,432.0,110.533333,29.085938
204.400009,430.133331,105.600006,29.085938
200.133347,429.333344,113.46666,29.082031
199.199997,430.800018,108.666672,29.085938
204.266663,426.0,109.866669,29.085938
202.133331,431.199982,106.666672,29.082031
205.333328,428.266663,110.266663,29.085938
200.133347,432.533325,106.53334,29.085938
202.933334,428.0,110.666664,29.082031
199.199997,430.400024,106.666672,29.082031
205.333328,429.599976,108.26667,29.085938
202.266678,428.133301,107.466667,29.085938
201.600006,429.733307,110.800003,29.085938
202.0,427.333344,110.400002,29.085938
202.666656,430.0,108.26667,29.085938
202.133331,430.93335,110.133331,29.085938
203.600006,428.133301,107.333336,29.085938
202.666656,428.266663,108.933334,29.085938
201.066666,429.866669,108.400002,29.085938
203.199997,431.733337,108.533333,29.082031
197.333344,428.399994,109.066666,29.085938
203.866669,432.133331,112.266663,29.085938
200.400009,427.466675,107.600006,29.085938
203.066681,432.533325,109.866669,29.085938
199.733337,429.866669,107.733337,29.085938
202.53334,434.0,111.066666,29.082031
199.199997,426.933319,107.200005,29.085938
204.799988,433.466675,109.733337,29.085938
200.0,426.666687,106.933334,29.085938
201.333328,431.866699,113.46666,29.085938
200.93335,426.799988,105.466675,29.082031
203.866669,434.0,109.866669,29.085938
201.066666,428.399994,107.600006,29.082031
202.266678,434.666687,110.933334,29.085938
201.733337,425.733337,106.53334,29.085938
201.466675,433.866638,110.133331,29.082031
201.466675,428.133301,108.133331,29.085938
201.333328,432.400024,110.933334,29.082031
198.666672,427.466675,111.066666,29.085938
203.46666,432.666656,108.133331,29.082031
201.200012,428.0,108.26667,29.085938
206.800003,431.733337,111.199997,29.085938
201.466675,426.666687,106.800003,29.082031
204.533325,430.533325,111.466667,29.085938
202.266678,428.800018,109.466667,29.085938
204.0,429.466675,110.933334,29.082031
204.133331,431.466675,102.533333,29.082031
201.466675,427.866669,113.599998,29.085938
200.533325,429.199982,102.399994,29.085938
202.266678,426.266663,109.599998,29.085938
203.066681,431.600006,105.600006,29.085938
202.266678,429.06665,111.866669,29.085938
201.466675,429.06665,102.266663,29.085938
202.800003,427.599976,106.133339,29.082031
200.0,433.866638,112.0,29.082031
202.800003,425.066681,106.933334,29.082031
201.600006,435.200012,114.533325,29.085938
205.066666,426.933319,103.73333,29.082031
202.0,434.133331,112.533333,29.085938
201.733337,423.333313,104.399994,29.085938
201.733337,436.266663,113.333328,29.085938
201.466675,427.06665,103.73333,29.085938
202.0,433.733337,112.133331,29.082031
201.733337,423.733337,102.533333,29.082031
205.333328,430.533325,112.666664,29.085938
200.533325,430.266693,100.133331,29.085938
205.333328,430.133331,114.666664,29.082031
199.866653,432.400024,103.866661,29.082031
204.133331,426.0,112.133331,29.085938
199.866653,434.799988,105.200005,29.082031
202.800003,423.866638,112.133331,29.085938
200.533325,434.133331,103.73333,29.085938
202.666656,425.333313,111.73333,29.082031
198.133331,435.333313,110.0,29.082031
202.800003,422.400024,108.533333,29.082031
201.733337,433.333313,104.799995,29.085938
201.466675,425.600006,116.400002,29.082031
201.333328,437.06665,108.666672,29.085938
201.066666,422.133331,109.733337,29.082031
201.466675,435.866669,106.400002,29.082031
206.266663,424.933319,113.866661,29.082031
202.53334,437.06665,110.400002,29.082031
203.600006,422.133331,109.733337,29.085938
206.0,435.066681,105.066673,29.082031
199.06665,423.600006,114.399994,29.085938
207.066666,435.333313,112.266663,29.085938
200.666672,424.666687,107.333336,29.082031
202.53334,433.333313,110.0,29.082031
201.733337,425.200012,112.0,29.082031
202.800003,435.733337,112.133331,29.085938
200.266663,424.0,107.600006,29.082031
204.266663,431.333344,118.0,29.082031
201.066666,425.333313,100.0,29.082031
202.666656,428.533325,114.799995,29.082031
201.333328,430.133331,101.066666,29.082031
202.800003,432.0,115.066673,29.082031
202.266678,425.333313,102.0,29.082031
204.933334,428.800018,115.866669,29.082031
200.400009,430.266693,101.199997,29.082031
201.466675,432.533325,115.866669,29.082031
199.199997,425.466644,102.666664,29.082031
198.133331,427.866669,118.0,29.082031
203.46666,431.06665,98.26667,29.082031
202.933334,432.0,118.400002,29.082031
201.066666,426.399994,100.666664,29.082031
201.333328,426.533325,116.933334,29.082031
201.066666,431.199982,98.800003,29.082031
204.933334,430.0,119.599998,29.082031
200.93335,439.599976,105.733337,29.082031
197.733322,430.533325,100.800003,29.082031
205.333328,431.199982,115.866669,29.082031
196.933319,428.666656,103.866661,29.085938
203.46666,432.0,112.533333,29.085938
201.466675,431.866699,100.400002,29.082031
205.866669,428.93335,117.600006,29.085938
200.266663,431.466675,100.0,29.082031
205.066666,430.533325,117.200005,29.082031
198.533325,434.399994,101.199997,29.085938
205.599991,424.933319,116.933334,29.085938
201.200012,432.0,102.533333,29.082031
202.933334,431.466675,117.733337,29.082031
198.533325,433.200012,100.533333,29.082031
205.866669,428.93335,115.733337,29.082031
200.0,431.199982,102.0,29.082031
201.866669,430.800018,116.800003,29.082031
197.46666,435.866669,100.533333,29.082031
205.066666,426.666687,117.466667,29.082031
199.333328,432.93335,102.399994,29.082031
199.866653,430.533325,118.800003,29.082031
191.733337,434.533356,105.333336,29.082031
205.333328,425.200012,118.0,29.082031
198.799988,433.066681,100.933334,29.082031
204.400009,429.599976,117.866669,29.082031
199.333328,435.866669,102.533333,29.085938
205.866669,425.066681,116.800003,29.082031
201.866669,434.133331,101.599998,29.082031
204.0,428.133301,118.0,29.082031
203.199997,433.466675,107.600006,29.082031
202.399994,424.266663,110.266663,29.082031
199.06665,434.666687,103.46666,29.082031
204.400009,422.93335,107.200005,29.085938
203.066681,431.06665,114.0,29.082031
203.066681,427.333344,102.266663,29.082031
201.600006,433.200012,112.399994,29.082031
203.46666,422.533325,103.066666,29.082031
196.800003,429.866669,117.200005,29.082031
203.066681,429.199982,98.0,29.082031
202.399994,431.733337,117.333336,29.082031
202.0,424.133331,100.266663,29.082031
202.800003,430.133331,116.800003,29.082031
202.133331,428.266663,100.133331,29.082031
203.066681,432.799988,117.866669,29.082031
199.466675,427.866669,100.933334,29.082031
202.133331,429.866669,117.333336,29.082031
200.93335,428.533325,100.266663,29.082031
204.266663,429.599976,117.333336,29.082031
198.533325,427.733337,101.73333,29.085938
202.800003,428.666656,120.400002,29.085938
200.533325,429.599976,100.666664,29.082031
202.933334,423.466675,108.800003,29.085938
201.600006,434.799988,102.533333,29.082031
204.0,423.600006,107.466667,29.085938
201.200012,434.399994,109.733337,29.082031
203.866669,422.93335,111.333328,29.082031
204.666672,433.866638,104.399994,29.085938
203.333344,425.466644,104.399994,29.082031
201.200012,433.733337,110.666664,29.085938
205.599991,424.933319,111.199997,29.082031
202.800003,432.133331,104.933327,29.082031
204.266663,424.666687,108.0,29.082031
200.133347,434.666687,110.0,29.082031
203.333344,425.466644,111.466667,29.082031
202.133331,432.799988,105.466675,29.082031
198.799988,428.399994,106.0,29.082031
206.0,430.666656,109.199997,29.082031
199.333328,428.399994,111.466667,29.082031
201.066666,429.866669,107.733337,29.085938
203.066681,429.733307,104.0,29.082031
207.733322,428.266663,113.73333,29.082031
200.0,431.466675,108.400002,29.082031
200.533325,429.866669,110.133331,29.082031
200.533325,430.400024,104.0,29.085938
205.066666,430.666656,109.466667,29.082031
203.46666,429.199982,105.733337,29.082031
199.866653,429.466675,111.066666,29.082031
201.066666,431.333344,105.200005,29.082031
203.733337,427.466675,111.73333,29.082031
200.800003,430.666656,105.866669,29.085938
198.933334,429.466675,111.73333,29.085938
200.666672,431.466675,105.333336,29.085938
202.266678,427.200012,112.266663,29.082031
202.399994,429.866669,110.533333,29.082031
197.333344,430.0,110.400002,29.082031
200.133347,429.866669,106.800003,29.082031
203.600006,427.06665,111.73333,29.082031
203.333344,431.333344,107.600006,29.082031
201.466675,429.466675,110.400002,29.082031
200.533325,430.133331,105.200005,29.082031
202.53334,426.0,110.0,29.082031
202.800003,431.600006,107.200005,29.085938
198.399994,428.266663,108.533333,29.082031
200.666672,429.866669,109.866669,29.082031
200.266663,430.133331,105.466675,29.082031
205.200012,427.333344,107.600006,29.082031
201.466675,429.06665,108.800003,29.082031
206.800003,428.0,107.200005,29.082031
199.333328,430.266693,109.066666,29.082031
202.933334,426.799988,109.866669,29.082031
200.0,431.466675,107.600006,29.082031
198.133331,428.93335,107.733337,29.085938
200.800003,431.600006,110.133331,29.082031
199.199997,428.0,108.666672,29.082031
200.533325,433.333313,110.0,29.082031
197.866669,425.600006,110.0,29.082031
201.733337,433.066681,106.26667,29.082031
201.200012,426.266663,111.73333,29.082031
202.133331,432.533325,106.666672,29.082031
200.93335,426.666687,107.333336,29.082031
203.600006,431.733337,112.799995,29.085938
203.333344,426.933319,105.866669,29.082031
200.533325,434.666687,112.933334,29.082031
199.733337,430.0,104.399994,29.082031
200.0,430.666656,114.933327,29.082031
202.933334,425.466644,101.066666,29.082031
200.400009,432.93335,116.800003,29.085938
204.933334,429.599976,103.199997,29.082031
201.733337,430.133331,112.933334,29.082031
202.0,426.0,103.599998,29.082031
204.266663,433.066681,113.46666,29.085938
205.866669,430.266693,102.533333,29.082031
204.0,430.666656,116.666672,29.082031
200.800003,428.93335,100.266663,29.082031
201.866669,434.133331,117.866669,29.082031
204.266663,430.533325,99.599998,29.082031
203.199997,431.06665,114.133331,29.082031
199.866653,426.799988,101.066666,29.082031
203.333344,433.200012,115.733337,29.082031
202.53334,430.533325,102.0,29.082031
199.599991,431.466675,117.333336,29.082031
199.466675,426.533325,101.466667,29.085938
204.933334,433.600006,117.600006,29.082031
198.666672,435.466644,110.400002,29.082031
206.800003,423.333313,107.600006,29.082031
203.600006,430.800018,114.666664,29.082031
200.533325,427.06665,105.200005,29.082031
205.866669,430.533325,116.26667,29.082031
200.400009,429.866669,102.0,29.082031
202.666656,427.466675,117.066666,29.082031
201.733337,428.93335,100.533333,29.082031
205.599991,427.599976,112.933334,29.082031
200.666672,430.93335,103.46666,29.082031
202.399994,430.400024,116.400002,29.082031
197.866669,434.0,101.333328,29.082031
201.066666,424.266663,109.333336,29.082031
201.466675,432.0,103.599998,29.082031
200.666672,424.799988,115.466675,29.082031
203.333344,436.799988,113.46666,29.085938
205.733337,427.06665,101.333328,29.082031
202.53334,431.733337,119.866669,29.082031
198.799988,427.733337,101.066666,29.082031
207.333344,432.93335,112.933334,29.082031
200.400009,429.06665,99.066666,29.082031
204.533325,432.266663,118.0,29.082031
198.666672,423.866638,100.533333,29.082031
203.199997,434.399994,114.799995,29.082031
200.800003,428.399994,98.666672,29.082031
202.266678,433.200012,118.800003,29.082031
201.600006,436.133362,104.533325,29.078125
199.733337,425.733337,117.866669,29.082031
197.600006,430.800018,108.0,29.082031
205.066666,422.0,113.866661,29.082031
198.799988,436.0,104.533325,29.082031
204.666672,425.200012,115.866669,29.082031
200.400009,436.799988,106.666672,29.082031
203.199997,421.866699,114.0,29.082031
200.93335,434.266663,103.46666,29.082031
202.666656,424.666687,114.666664,29.082031
202.0,430.133331,116.800003,29.082031
203.600006,429.199982,98.666672,29.082031
203.066681,433.200012,117.866669,29.082031
202.133331,424.933319,101.599998,29.082031
204.266663,428.133301,117.866669,29.082031
201.733337,429.06665,98.400002,29.082031
203.199997,432.666656,118.26667,29.082031
200.133347,426.266663,99.466667,29.082031
201.600006,427.733337,120.400002,29.082031
203.733337,428.800018,98.0,29.082031
202.133331,432.266663,121.199997,29.082031
198.133331,426.533325,98.400002,29.082031
202.800003,428.93335,117.733337,29.082031
200.93335,427.866669,100.666664,29.082031
202.133331,432.666656,116.26667,29.082031
199.866653,425.866669,99.066666,29.082031
203.733337,428.399994,118.666672,29.082031
202.53334,429.866669,99.866669,29.082031
201.200012,431.866699,121.73333,29.082031
198.933334,426.799988,98.0,29.082031
203.733337,432.400024,118.26667,29.082031
198.799988,429.733307,99.866669,29.082031
204.933334,432.133331,120.133331,29.082031
199.866653,427.466675,99.466667,29.082031
210.533325,428.533325,118.666672,29.082031
200.0,429.466675,101.333328,29.082031
201.866669,433.333313,118.133331,29.082031
197.866669,426.933319,98.666672,29.082031
200.266663,429.466675,121.866669,29.082031
203.600006,429.733307,97.066666,29.082031
205.466675,424.0,115.066673,29.082031
196.133331,433.066681,101.333328,29.082031
204.400009,425.600006,115.866669,29.082031
199.199997,432.93335,103.333328,29.082031
204.400009,427.466675,117.600006,29.078125
199.06665,432.133331,102.0,29.082031
204.533325,427.333344,119.866669,29.078125
199.599991,430.133331,99.333336,29.082031
206.53334,426.533325,114.399994,29.082031
198.933334,434.266663,102.266663,29.082031
208.266663,425.600006,113.199997,29.082031
198.666672,434.0,102.933334,29.082031
204.400009,423.866638,115.600006,29.082031
199.199997,433.066681,103.333328,29.082031
205.599991,425.866669,113.46666,29.082031
196.399994,433.733337,106.933334,29.082031
207.199997,425.200012,110.400002,29.082031
200.400009,432.93335,104.799995,29.082031
205.599991,425.066681,112.0,29.082031
200.133347,435.333313,105.333336,29.082031
201.733337,424.266663,112.666664,29.082031
201.200012,434.533356,103.73333,29.082031
204.0,424.266663,110.533333,29.082031
198.933334,435.066681,107.733337,29.082031
202.666656,425.733337,111.599998,29.082031
205.200012,433.333313,102.666664,29.082031
208.0,424.133331,107.333336,29.082031
201.333328,434.533356,109.333336,29.082031
201.600006,427.466675,113.46666,29.082031
202.53334,431.600006,104.666664,29.082031
202.933334,425.066681,106.53334,29.078125
202.800003,433.733337,110.133331,29.082031
201.200012,425.733337,112.133331,29.082031
203.46666,432.93335,101.866669,29.082031
201.200012,426.399994,106.800003,29.082031
201.466675,432.93335,107.600006,29.082031
201.466675,425.733337,110.800003,29.082031
203.46666,431.06665,106.400002,29.082031
202.666656,426.266663,107.333336,29.082031
203.733337,432.266663,109.599998,29.082031
201.866669,427.200012,111.066666,29.082031
202.133331,429.733307,105.066673,29.082031
203.600006,428.266663,108.666672,29.082031
205.466675,426.533325,105.733337,29.082031
201.866669,428.133301,111.599998,29.082031
201.866669,428.666656,106.0,29.082031
201.466675,425.866669,108.666672,29.082031
202.133331,431.733337,109.333336,29.078125
201.200012,428.800018,109.599998,29.082031
201.333328,428.93335,105.066673,29.082031
200.93335,428.533325,107.733337,29.082031
204.933334,430.93335,107.333336,29.082031
199.866653,427.866669,114.399994,29.082031
200.800003,436.666687,106.666672,29.082031
203.199997,427.599976,108.933334,29.082031
202.800003,432.0,105.200005,29.082031
202.933334,429.733307,111.599998,29.082031
200.400009,429.199982,105.333336,29.082031
206.53334,424.666687,108.800003,29.082031
202.800003,429.466675,107.466667,29.082031
199.866653,429.199982,114.0,29.082031
203.066681,429.866669,101.73333,29.082031
200.0,429.466675,109.866669,29.082031
201.866669,430.400024,105.333336,29.082031
200.400009,431.06665,111.466667,29.082031
201.866669,429.866669,111.199997,29.082031
203.199997,429.866669,105.333336,29.082031
204.933334,430.533325,111.066666,29.082031
201.333328,430.800018,109.333336,29.082031
201.200012,430.266693,111.333328,29.082031
197.600006,428.666656,112.0,29.082031
204.400009,430.800018,106.53334,29.082031
201.466675,431.06665,108.26667,29.082031
199.199997,429.333344,109.466667,29.082031
203.333344,430.533325,109.199997,29.082031
200.533325,429.333344,108.666672,29.082031
201.733337,430.666656,108.800003,29.082031
201.466675,430.800018,109.733337,29.082031
198.666672,428.0,112.0,29.082031
200.93335,431.333344,107.333336,29.082031
203.733337,429.333344,109.599998,29.078125
201.866669,435.066681,110.666664,29.082031
201.466675,430.266693,109.599998,29.082031
202.933334,430.666656,109.333336,29.082031
201.600006,428.399994,108.133331,29.082031
205.066666,429.199982,109.333336,29.078125
202.53334,428.266663,106.800003,29.082031
202.266678,427.733337,109.866669,29.082031
200.133347,427.866669,106.0,29.082031
207.066666,429.599976,105.466675,29.078125
206.266663,427.866669,106.400002,29.082031
203.46666,429.199982,109.199997,29.078125
202.133331,428.666656,107.066666,29.078125
202.266678,426.799988,109.066666,29.082031
202.266678,427.733337,105.466675,29.082031
204.0,427.733337,106.933334,29.082031
193.066681,430.800018,110.666664,29.082031
201.600006,427.733337,106.26667,29.082031
197.733322,432.266663,109.466667,29.082031
203.46666,426.533325,110.133331,29.082031
200.666672,432.799988,107.733337,29.082031
202.133331,426.399994,109.866669,29.082031
199.733337,430.133331,107.333336,29.082031
204.133331,425.200012,108.0,29.078125
202.0,433.733337,108.133331,29.082031
202.399994,426.799988,107.066666,29.082031
197.066666,434.266663,111.333328,29.082031
204.133331,425.733337,106.53334,29.082031
203.600006,434.666687,107.200005,29.082031
201.333328,429.733307,108.26667,29.082031
205.466675,430.133331,111.866669,29.082031
200.666672,428.93335,107.866669,29.082031
202.933334,430.800018,110.800003,29.082031
201.066666,427.466675,106.133339,29.082031
204.400009,429.466675,109.066666,29.082031
198.399994,427.866669,108.933334,29.082031
203.199997,432.93335,107.600006,29.082031
196.53334,426.799988,106.400002,29.082031
207.333344,431.733337,112.399994,29.082031
201.066666,427.866669,107.466667,29.082031
203.733337,432.0,111.333328,29.082031
202.266678,426.533325,104.933327,29.082031
207.199997,429.466675,113.066666,29.082031
203.066681,427.733337,107.066666,29.082031
200.400009,432.799988,114.0,29.082031
203.866669,424.533356,102.933334,29.082031
204.133331,425.466644,112.799995,29.078125
200.533325,428.266663,104.266663,29.082031
201.066666,431.733337,114.0,29.082031
202.933334,425.733337,104.399994,29.082031
204.666672,428.133301,113.46666,29.082031
202.0,430.133331,103.73333,29.082031
198.399994,431.600006,117.066666,29.082031
203.866669,425.600006,99.733337,29.078125
205.466675,429.599976,113.199997,29.082031
200.533325,429.733307,103.599998,29.082031
203.199997,432.133331,116.26667,29.082031
201.066666,428.93335,102.0,29.078125
203.600006,426.399994,113.199997,29.082031
201.466675,430.533325,101.599998,29.078125
203.866669,428.399994,116.933334,29.078125
197.733322,431.06665,102.799995,29.082031
201.200012,424.933319,116.400002,29.082031
199.199997,433.866638,102.533333,29.082031
205.066666,427.333344,112.666664,29.082031
199.333328,432.93335,102.933334,29.082031
203.199997,426.133362,114.266663,29.082031
199.866653,430.93335,101.866669,29.078125
204.266663,427.599976,116.800003,29.082031
199.733337,432.400024,102.799995,29.082031
205.733337,424.0,115.200005,29.082031
199.06665,433.333313,102.0,29.082031
205.599991,425.200012,112.799995,29.082031
198.933334,434.399994,101.73333,29.082031
201.866669,424.399994,109.866669,29.082031
205.733337,434.666687,115.733337,29.078125
198.533325,425.733337,102.933334,29.082031
204.799988,432.266663,111.73333,29.082031
198.0,428.0,99.866669,29.082031
208.399994,432.0,113.73333,29.082031
197.600006,426.533325,105.333336,29.082031
205.866669,433.200012,112.0,29.078125
199.199997,424.266663,100.0,29.082031
205.066666,432.400024,117.066666,29.082031
196.800003,426.399994,97.866669,29.082031
201.866669,431.06665,114.799995,29.082031
198.0,434.266663,100.800003,29.082031
205.866669,425.466644,115.600006,29.082031
200.800003,433.066681,101.866669,29.078125
206.266663,425.866669,115.733337,29.078125
203.733337,434.666687,106.26667,29.078125
202.266678,424.533356,108.800003,29.082031
201.333328,433.733337,106.933334,29.078125
203.866669,423.866638,111.066666,29.078125
203.600006,429.866669,118.26667,29.078125
200.800003,429.06665,100.133331,29.082031
202.266678,432.799988,118.533333,29.082031
198.533325,426.533325,98.933334,29.082031
200.266663,427.866669,120.800003,29.078125
198.533325,431.733337,97.600006,29.082031
204.400009,431.333344,118.400002,29.082031
200.0,429.866669,100.133331,29.078125
206.800003,428.266663,118.800003,29.082031
200.133347,432.0,100.0,29.082031
203.333344,428.533325,118.533333,29.082031
199.333328,432.400024,100.400002,29.082031
203.46666,421.466675,102.933334,29.082031
202.800003,435.333313,110.400002,29.082031
201.333328,422.533325,110.933334,29.082031
203.066681,434.266663,103.866661,29.082031
201.733337,422.0,104.133331,29.082031
201.333328,434.933319,109.466667,29.082031
201.333328,422.799988,106.666672,29.082031
202.666656,433.733337,106.133339,29.078125
195.066666,424.266663,102.0,29.082031
206.266663,434.133331,109.866669,29.082031
199.733337,424.399994,110.266663,29.082031
203.866669,433.600006,105.333336,29.078125
200.666672,426.0,101.599998,29.078125
201.866669,432.93335,112.399994,29.078125
201.200012,426.399994,105.866669,29.082031
202.933334,432.400024,109.066666,29.082031
200.133347,428.0,100.933334,29.082031
201.733337,431.199982,113.599998,29.082031
200.400009,427.466675,106.0,29.082031
200.533325,433.333313,111.199997,29.082031
197.066666,427.06665,104.133331,29.078125
204.0,430.133331,111.066666,29.078125
195.599991,426.799988,107.066666,29.082031
199.866653,432.400024,108.133331,29.082031
204.0,432.533325,101.333328,29.078125
203.733337,429.06665,117.333336,29.078125
202.399994,429.199982,98.666672,29.078125
202.53334,432.533325,116.0,29.082031
200.266663,432.666656,100.0,29.078125
200.93335,428.133301,118.400002,29.082031
202.0,428.133301,99.599998,29.078125
203.199997,429.06665,115.066673,29.082031
198.933334,433.200012,101.066666,29.078125
204.0,429.06665,117.333336,29.082031
202.133331,428.133301,99.066666,29.082031
202.933334,432.133331,117.200005,29.082031
203.600006,432.400024,99.199997,29.082031
201.466675,427.333344,118.533333,29.082031
201.200012,428.133301,99.199997,29.082031
201.333328,430.666656,116.53334,29.078125
199.733337,429.866669,103.199997,29.082031
203.733337,429.199982,113.333328,29.082031
202.53334,428.399994,104.133331,29.078125
201.466675,432.400024,111.866669,29.078125
200.133347,431.600006,102.799995,29.078125
201.066666,428.93335,114.266663,29.082031
205.066666,428.93335,97.200005,29.082031
200.800003,431.866699,115.866669,29.082031
201.466675,431.333344,103.333328,29.082031
202.666656,428.666656,113.73333,29.082031
203.600006,428.266663,104.799995,29.078125
203.46666,431.466675,117.200005,29.078125
200.133347,430.266693,102.399994,29.082031
202.933334,429.866669,117.733337,29.078125
200.533325,429.199982,101.466667,29.078125
205.200012,429.333344,115.200005,29.078125
198.266663,431.333344,100.266663,29.082031
204.933334,428.533325,115.733337,29.082031
198.133331,430.133331,102.533333,29.078125
203.333344,427.866669,114.799995,29.082031
198.933334,430.666656,104.0,29.082031
205.733337,426.666687,110.666664,29.082031
200.666672,434.133331,107.733337,29.082031
204.0,426.533325,112.0,29.082031
197.333344,432.133331,112.799995,29.082031
202.53334,427.866669,106.26667,29.082031
203.333344,431.06665,107.600006,29.082031
202.800003,427.866669,111.333328,29.082031
201.066666,432.799988,110.400002,29.082031
201.066666,427.333344,108.0,29.082031
198.533325,432.93335,109.066666,29.082031
201.866669,427.733337,111.599998,29.082031
199.866653,432.666656,110.0,29.082031
201.866669,430.400024,108.666672,29.082031
198.133331,431.866699,108.666672,29.082031
200.533325,429.333344,111.199997,29.082031
201.733337,428.399994,110.400002,29.078125
202.53334,428.133301,109.333336,29.078125
204.0,431.06665,108.533333,29.082031
202.0,430.666656,111.199997,29.082031
201.066666,430.666656,110.933334,29.082031
202.800003,428.666656,108.666672,29.082031
205.200012,429.466675,105.200005,29.082031
199.199997,429.199982,112.399994,29.082031
202.133331,428.399994,111.599998,29.082031
202.0,431.199982,108.133331,29.082031
201.333328,427.06665,111.599998,29.082031
202.800003,428.93335,107.066666,29.082031
204.0,426.799988,110.0,29.082031
203.199997,427.466675,104.799995,29.082031
203.600006,431.333344,112.933334,29.082031
202.133331,428.800018,104.399994,29.082031
199.733337,429.733307,112.0,29.082031
198.933334,433.066681,108.133331,29.082031
202.266678,430.666656,109.866669,29.082031
200.93335,431.199982,108.533333,29.082031
208.0,432.266663,110.133331,29.082031
201.200012,429.599976,110.400002,29.082031
204.799988,430.400024,110.666664,29.082031
201.866669,426.933319,108.533333,29.082031
206.666656,431.466675,107.333336,29.078125
206.0,428.666656,104.0,29.082031
198.266663,429.466675,113.46666,29.082031
202.666656,426.399994,108.533333,29.082031
202.800003,427.599976,108.0,29.082031
200.800003,428.800018,107.466667,29.082031
199.599991,429.466675,110.666664,29.082031
203.333344,425.066681,107.600006,29.078125
206.0,427.599976,108.800003,29.082031
199.866653,431.733337,106.800003,29.078125
204.400009,427.733337,108.0,29.082031
197.066666,431.333344,109.466667,29.082031
202.399994,428.666656,109.466667,29.082031
202.399994,432.133331,108.800003,29.082031
202.133331,426.799988,109.466667,29.082031
199.199997,429.866669,105.333336,29.082031
202.666656,428.266663,110.533333,29.082031
201.333328,431.466675,106.933334,29.078125
204.133331,424.533356,106.53334,29.082031
201.600006,433.866638,111.066666,29.082031
