mx,my,mz,temp
221.466675,443.466675,119.866669,33.113281
226.933319,443.733337,121.599998,33.117188
217.46666,434.533356,119.466667,33.117188
228.133331,441.199982,121.599998,33.117188
225.733337,437.466675,121.066666,33.113281
227.199997,443.333313,121.066666,33.113281
219.06665,436.666687,123.333328,33.113281
230.0,439.599976,121.599998,33.113281
215.466675,442.533325,120.133331,33.117188
219.866653,437.06665,118.800003,33.117188
230.133347,439.06665,120.800003,33.117188
228.266663,439.199982,121.199997,33.117188
214.666672,437.06665,119.866669,33.117188
221.866669,434.933319,120.400002,33.113281
222.53334,438.800018,114.266663,33.117188
227.066666,439.599976,125.200005,33.113281
217.866669,437.333344,120.133331,33.113281
213.199997,438.399994,121.199997,33.117188
216.666656,438.533325,120.400002,33.113281
227.733322,436.399994,121.066666,33.117188
216.933319,436.799988,123.73333,33.117188
227.199997,436.933319,121.199997,33.117188
217.733322,436.933319,114.0,33.113281
228.399994,440.133331,124.933327,33.117188
221.600006,437.466675,123.73333,33.117188
230.133347,440.400024,121.599998,33.117188
213.333344,437.466675,119.599998,33.113281
228.933334,440.0,115.733337,33.117188
219.06665,437.733337,126.133339,33.113281
223.46666,445.066681,120.933334,33.117188
218.933334,439.733307,121.066666,33.117188
228.799988,436.799988,121.73333,33.113281
216.666656,437.06665,114.266663,33.113281
218.933334,438.399994,120.666664,33.113281
218.133331,438.533325,120.533333,33.113281
224.266663,438.0,115.733337,33.117188
220.266663,437.733337,124.666664,33.117188
222.266678,437.333344,120.666664,33.113281
221.200012,439.599976,120.400002,33.117188
222.666656,433.733337,120.933334,33.117188
222.933334,438.800018,119.599998,33.113281
218.533325,440.400024,120.133331,33.113281
229.466675,440.266693,116.933334,33.117188
222.0,436.799988,120.400002,33.113281
224.133331,440.533325,121.466667,33.117188
222.53334,438.0,115.066673,33.117188
228.133331,439.599976,127.866669,33.117188
218.133331,437.333344,119.333336,33.117188
234.400009,440.400024,122.133331,33.117188
221.200012,434.399994,120.933334,33.117188
226.0,441.466675,111.73333,33.113281
221.733337,437.466675,121.066666,33.117188
225.866669,443.333313,121.199997,33.117188
230.0,440.400024,121.866669,33.117188
224.799988,437.599976,121.466667,33.117188
218.0,439.199982,120.800003,33.117188
222.266678,439.06665,121.199997,33.113281
229.733337,440.133331,125.200005,33.113281
214.0,436.666687,120.266663,33.113281
229.199997,438.133301,122.133331,33.113281
220.400009,436.933319,121.066666,33.113281
220.666672,434.266663,120.800003,33.113281
230.800003,440.400024,121.866669,33.113281
230.666672,440.266693,121.199997,33.113281
218.0,438.133301,121.466667,33.117188
228.266663,436.799988,122.133331,33.117188
217.600006,437.06665,127.866669,33.117188
227.600006,440.266693,120.266663,33.117188
230.133347,438.399994,121.466667,33.117188
227.866669,437.333344,121.866669,33.117188
217.600006,437.06665,114.399994,33.117188
226.933319,440.266693,124.799995,33.117188
223.066681,438.533325,121.466667,33.113281
226.666656,439.866669,121.866669,33.113281
218.266663,440.533325,120.666664,33.113281
227.600006,440.266693,115.466675,33.113281
224.0,436.666687,120.666664,33.113281
225.066666,445.066681,121.466667,33.113281
216.933319,432.266663,120.533333,33.113281
228.666672,440.0,116.26667,33.113281
224.666672,437.333344,120.800003,33.113281
222.399994,434.933319,120.933334,33.113281
221.466675,437.733337,114.799995,33.113281
228.133331,440.0,126.0,33.117188
217.199997,437.466675,119.733337,33.117188
221.866669,444.0,121.066666,33.117188
220.133347,435.333313,121.066666,33.113281
227.600006,439.466675,126.666672,33.113281
218.399994,436.666687,119.199997,33.113281
220.666672,442.93335,120.800003,33.113281
223.199997,434.399994,120.533333,33.113281
224.799988,438.399994,123.333328,33.113281
219.06665,437.866669,119.866669,33.117188
217.733322,440.666656,120.266663,33.113281
228.0,440.133331,123.866661,33.113281
214.799988,436.799988,120.0,33.113281
228.266663,439.733307,116.0,33.117188
224.799988,445.333313,120.933334,33.113281
223.733337,434.799988,121.066666,33.113281
220.93335,438.533325,124.266663,33.117188
229.199997,440.133331,121.199997,33.117188
222.53334,440.400024,120.800003,33.113281
222.800003,442.93335,121.199997,33.113281
221.466675,438.133301,115.600006,33.113281
228.533325,439.466675,125.466675,33.113281
231.333328,440.266693,121.199997,33.113281
218.533325,438.800018,121.066666,33.113281
221.200012,433.733337,120.266663,33.117188
228.533325,440.533325,113.46666,33.113281
234.799988,440.0,121.599998,33.113281
216.933319,438.266663,121.333328,33.113281
223.333344,434.666687,120.533333,33.113281
223.199997,438.0,120.933334,33.113281
227.46666,435.200012,121.466667,33.113281
215.599991,438.0,110.933334,33.113281
228.666672,440.266693,121.866669,33.113281
221.066666,437.333344,120.800003,33.113281
222.399994,438.0,114.799995,33.117188
221.200012,437.733337,123.599998,33.117188
229.199997,440.400024,121.333328,33.113281
223.199997,437.200012,120.0,33.113281
221.866669,433.733337,121.066666,33.113281
225.066666,439.333344,119.599998,33.113281
231.866669,438.93335,121.199997,33.113281
219.866653,439.866669,120.266663,33.113281
219.199997,437.200012,124.266663,33.113281
231.600006,440.533325,122.799995,33.113281
218.666672,441.06665,120.400002,33.117188
223.46666,436.933319,121.199997,33.117188
217.46666,437.200012,114.933327,33.113281
227.199997,439.866669,126.26667,33.117188
222.666656,437.866669,120.666664,33.113281
226.399994,438.533325,120.933334,33.117188
217.066666,433.066681,120.133331,33.113281
226.800003,440.133331,115.066673,33.117188
222.666656,438.266663,124.0,33.113281
221.466675,437.733337,121.333328,33.113281
218.133331,441.466675,119.733337,33.113281
226.933319,435.733337,120.666664,33.113281
220.266663,437.599976,113.866661,33.113281
218.799988,439.466675,120.800003,33.113281
220.400009,438.0,112.666664,33.113281
228.666672,440.266693,123.599998,33.113281
217.733322,437.466675,120.133331,33.117188
228.533325,444.799988,122.533333,33.113281
224.533325,439.466675,123.866661,33.113281
225.200012,439.599976,120.666664,33.113281
223.733337,437.333344,120.533333,33.113281
227.866669,436.666687,121.333328,33.113281
234.533325,440.266693,122.133331,33.113281
216.133331,437.866669,120.0,33.113281
223.333344,444.933319,120.800003,33.113281
227.333344,436.266663,121.599998,33.113281
231.866669,438.800018,122.133331,33.113281
216.53334,434.0,120.0,33.113281
229.06665,440.533325,121.599998,33.113281
224.666672,437.200012,120.533333,33.113281
225.866669,440.0,110.400002,33.113281
217.866669,437.06665,117.866669,33.113281
220.93335,440.533325,121.866669,33.113281
217.46666,442.666656,120.133331,33.113281
224.666672,438.399994,115.600006,33.113281
218.133331,437.200012,123.199997,33.113281
229.866653,440.266693,121.333328,33.113281
215.866669,442.93335,120.133331,33.113281
223.866669,438.266663,114.799995,33.113281
220.533325,437.733337,123.73333,33.113281
229.733337,440.133331,121.199997,33.113281
223.199997,437.200012,120.266663,33.113281
220.666672,437.200012,124.933327,33.113281
223.46666,439.333344,121.066666,33.113281
230.93335,440.0,121.866669,33.113281
218.933334,434.666687,120.533333,33.113281
214.0,437.599976,119.733337,33.113281
228.666672,439.733307,116.0,33.113281
218.266663,437.599976,119.466667,33.117188
230.266663,440.400024,121.466667,33.113281
220.533325,438.800018,111.73333,33.113281
229.733337,440.133331,122.533333,33.113281
223.600006,436.533325,119.733337,33.113281
228.533325,434.533356,122.133331,33.113281
224.799988,439.866669,121.199997,33.113281
227.866669,439.466675,121.333328,33.113281
219.199997,443.866638,122.0,33.113281
228.799988,435.866669,122.0,33.113281
223.46666,439.866669,121.199997,33.113281
222.266678,441.600006,120.666664,33.113281
220.800003,435.200012,121.599998,33.113281
227.866669,440.266693,125.066673,33.113281
228.666672,444.266663,121.73333,33.113281
216.666656,436.533325,123.333328,33.113281
227.46666,440.266693,120.933334,33.113281
226.933319,438.399994,121.066666,33.113281
228.133331,444.666687,122.0,33.113281
217.600006,434.666687,120.800003,33.113281
224.266663,439.733307,114.0,33.113281
225.733337,439.866669,125.200005,33.113281
221.866669,437.200012,120.666664,33.113281
225.866669,440.666656,121.73333,33.113281
219.466675,441.866699,121.199997,33.113281
223.46666,435.866669,121.066666,33.117188
225.599991,437.333344,120.533333,33.113281
225.466675,439.333344,121.599998,33.113281
217.866669,437.06665,114.133331,33.113281
230.133347,440.400024,120.933334,33.113281
220.533325,429.466675,121.066666,33.113281
224.933334,438.666656,119.466667,33.113281
220.533325,444.133331,121.199997,33.113281
227.199997,435.466644,122.0,33.113281
232.266678,440.266693,122.0,33.113281
216.399994,437.466675,120.400002,33.113281
224.933334,440.266693,113.73333,33.113281
224.666672,438.800018,129.199997,33.109375
227.733322,443.200012,121.73333,33.109375
217.733322,434.666687,119.733337,33.113281
229.733337,440.266693,121.866669,33.109375
222.399994,437.466675,120.533333,33.113281
224.533325,437.733337,114.133331,33.113281
220.266663,438.0,120.133331,33.113281
228.399994,446.933319,121.333328,33.113281
215.733337,432.93335,119.866669,33.109375
221.866669,441.733337,121.73333,33.113281
223.733337,444.0,121.333328,33.113281
225.866669,439.06665,115.733337,33.113281
223.199997,437.733337,121.333328,33.109375
217.333344,436.533325,113.866661,33.113281
226.800003,440.266693,125.466675,33.113281
228.266663,438.399994,121.333328,33.109375
222.133331,436.266663,121.599998,33.113281
215.066666,436.0,120.400002,33.113281
229.199997,436.799988,121.599998,33.109375
218.0,437.333344,114.266663,33.109375
226.53334,440.0,121.599998,33.113281
217.199997,442.0,120.933334,33.109375
228.933334,440.266693,115.600006,33.113281
219.599991,437.466675,119.466667,33.109375
225.599991,440.133331,121.066666,33.113281
220.533325,437.733337,124.933327,33.113281
224.266663,443.333313,121.333328,33.113281
218.399994,439.06665,104.799995,33.113281
230.266663,441.06665,121.866669,33.113281
228.266663,440.133331,124.933327,33.109375
211.733337,436.799988,121.466667,33.109375
221.866669,442.533325,120.400002,33.113281
221.733337,438.133301,126.933334,33.113281
227.733322,441.333344,111.466667,33.113281
217.866669,436.933319,123.73333,33.113281
234.533325,440.533325,122.0,33.113281
217.199997,437.599976,121.199997,33.109375
226.133331,439.333344,126.666672,33.113281
222.266678,437.466675,120.666664,33.113281
228.0,437.200012,121.466667,33.113281
218.533325,436.933319,123.199997,33.113281
219.06665,437.733337,112.399994,33.113281
232.0,439.733307,121.466667,33.109375
218.0,434.666687,120.133331,33.113281
224.666672,439.199982,126.133339,33.109375
217.866669,443.200012,120.400002,33.113281
228.266663,438.399994,121.866669,33.109375
222.933334,436.799988,120.0,33.113281
228.266663,446.0,121.73333,33.113281
223.866669,437.866669,125.200005,33.113281
219.466675,438.533325,121.333328,33.109375
218.933334,440.93335,120.533333,33.113281
229.199997,439.06665,121.199997,33.113281
227.600006,443.600006,121.73333,33.113281
219.599991,437.333344,115.733337,33.109375
225.333328,439.466675,123.199997,33.113281
225.599991,439.199982,121.333328,33.109375
228.266663,440.93335,113.199997,33.113281
217.600006,436.933319,123.199997,33.109375
226.933319,440.133331,120.533333,33.113281
227.066666,437.733337,121.199997,33.113281
228.0,436.0,121.466667,33.109375
216.399994,437.06665,127.466667,33.109375
228.266663,440.666656,121.466667,33.113281
217.46666,442.533325,120.533333,33.113281
225.066666,438.533325,124.266663,33.109375
224.933334,437.333344,121.466667,33.109375
225.333328,436.666687,121.199997,33.109375
218.533325,436.933319,125.733337,33.109375
222.133331,443.466675,120.666664,33.109375
226.933319,440.0,123.199997,33.113281
222.800003,438.0,121.199997,33.109375
222.800003,443.866638,120.933334,33.109375
217.333344,436.933319,124.133331,33.109375
228.266663,439.733307,121.199997,33.113281
215.866669,437.866669,119.866669,33.109375
226.0,439.199982,116.26667,33.113281
218.799988,437.599976,120.400002,33.109375
225.333328,436.0,122.0,33.113281
217.733322,437.599976,120.0,33.109375
227.333344,442.93335,122.0,33.113281
229.466675,440.666656,121.466667,33.109375
218.266663,440.133331,120.800003,33.109375
225.066666,436.399994,121.599998,33.109375
225.333328,438.399994,119.733337,33.109375
223.199997,439.466675,121.599998,33.109375
218.399994,442.533325,119.733337,33.109375
225.066666,436.533325,120.666664,33.113281
224.400009,437.333344,121.333328,33.109375
228.533325,438.0,121.599998,33.105469
218.399994,437.200012,113.866661,33.109375
227.46666,440.400024,120.800003,33.109375
219.333328,440.93335,120.400002,33.109375
227.199997,439.199982,121.199997,33.109375
218.933334,440.533325,120.0,33.109375
227.600006,434.933319,122.266663,33.109375
216.399994,436.933319,123.333328,33.109375
219.466675,438.133301,112.266663,33.109375
225.733337,440.0,121.466667,33.109375
220.133347,430.666656,121.466667,33.109375
222.666656,438.533325,114.666664,33.109375
218.533325,433.733337,120.800003,33.109375
229.466675,439.866669,114.399994,33.109375
217.866669,437.466675,119.066666,33.105469
226.266663,445.866669,122.0,33.109375
224.666672,439.466675,121.066666,33.113281
228.399994,439.466675,121.599998,33.109375
218.133331,441.866699,119.599998,33.109375
229.333328,439.866669,117.466667,33.109375
217.733322,440.133331,121.466667,33.109375
220.533325,438.533325,113.066666,33.105469
222.133331,438.800018,126.400002,33.109375
227.333344,440.0,120.266663,33.109375
227.066666,443.466675,122.0,33.109375
219.199997,434.933319,120.933334,33.105469
222.666656,438.666656,114.266663,33.109375
227.733322,439.733307,126.0,33.105469
228.133331,439.333344,126.933334,33.105469
216.800003,437.333344,120.266663,33.109375
228.266663,443.600006,122.533333,33.109375
219.199997,435.600006,120.666664,33.109375
218.799988,437.733337,121.066666,33.109375
224.266663,438.800018,116.133339,33.109375
225.333328,438.93335,125.200005,33.109375
218.799988,437.333344,120.133331,33.105469
219.599991,441.733337,120.800003,33.109375
226.133331,439.599976,114.399994,33.105469
211.866669,437.866669,120.400002,33.109375
224.400009,432.799988,120.800003,33.109375
217.066666,436.933319,125.733337,33.105469
225.333328,440.133331,122.266663,33.109375
217.866669,440.800018,119.066666,33.105469
221.200012,438.133301,120.266663,33.109375
218.266663,444.0,120.400002,33.105469
227.733322,439.466675,129.600006,33.109375
222.133331,438.0,120.400002,33.109375
220.133347,439.599976,121.066666,33.105469
217.733322,436.933319,114.133331,33.105469
229.199997,440.266693,127.066666,33.109375
222.266678,438.133301,120.666664,33.105469
224.133331,436.0,121.066666,33.105469
219.466675,437.333344,120.266663,33.105469
226.399994,434.799988,121.199997,33.105469
217.866669,436.799988,112.933334,33.105469
229.333328,440.666656,121.599998,33.105469
221.866669,441.866699,120.800003,33.105469
228.533325,440.533325,121.333328,33.109375
224.933334,438.133301,121.599998,33.109375
221.200012,444.0,120.800003,33.109375
218.799988,436.533325,118.400002,33.109375
227.866669,440.266693,121.066666,33.109375
226.399994,437.466675,121.73333,33.109375
222.800003,439.199982,112.666664,33.105469
228.0,440.0,124.266663,33.109375
222.666656,437.333344,120.266663,33.105469
225.066666,440.533325,121.333328,33.105469
219.466675,434.133331,120.800003,33.109375
230.400009,437.599976,121.199997,33.105469
217.46666,440.666656,120.666664,33.109375
226.133331,439.333344,124.266663,33.105469
223.600006,436.933319,120.666664,33.105469
218.0,437.333344,125.733337,33.105469
225.866669,440.266693,121.466667,33.105469
217.333344,438.399994,120.933334,33.105469
219.866653,441.333344,120.533333,33.105469
222.266678,436.933319,119.866669,33.109375
228.133331,437.733337,121.599998,33.105469
218.533325,437.333344,114.799995,33.105469
232.266678,439.866669,121.866669,33.105469
220.666672,441.733337,120.400002,33.105469
226.933319,439.466675,114.666664,33.105469
215.599991,437.466675,120.266663,33.105469
228.799988,444.0,122.0,33.105469
226.0,439.599976,126.0,33.105469
228.399994,439.333344,121.333328,33.105469
214.400009,437.599976,119.199997,33.105469
228.399994,444.0,121.599998,33.105469
224.400009,438.93335,120.666664,33.105469
219.866653,441.600006,120.933334,33.105469
221.600006,438.533325,114.666664,33.105469
228.799988,440.0,123.333328,33.105469
229.466675,440.266693,116.800003,33.105469
218.133331,437.200012,123.46666,33.105469
223.199997,440.133331,121.066666,33.105469
221.600006,430.400024,120.666664,33.105469
229.466675,440.133331,124.933327,33.105469
224.933334,437.466675,120.400002,33.105469
227.066666,443.200012,120.933334,33.105469
222.133331,439.599976,111.199997,33.105469
233.733337,440.266693,122.0,33.105469
214.400009,437.466675,119.733337,33.105469
226.800003,443.200012,121.333328,33.105469
220.0,438.0,124.266663,33.105469
225.066666,437.200012,120.800003,33.105469
222.133331,437.599976,126.26667,33.105469
222.53334,439.466675,119.733337,33.105469
224.533325,439.199982,121.599998,33.105469
234.0,440.533325,122.133331,33.105469
215.466675,432.0,120.266663,33.105469
229.199997,440.533325,116.0,33.105469
220.0,437.733337,120.533333,33.101562
223.600006,436.0,120.933334,33.105469
221.866669,438.666656,119.466667,33.105469
231.200012,439.866669,120.533333,33.105469
218.533325,433.600006,121.333328,33.105469
219.466675,437.466675,120.0,33.105469
227.333344,443.866638,121.466667,33.105469
218.133331,436.666687,123.066666,33.105469
225.333328,439.866669,120.266663,33.105469
223.866669,438.800018,124.133331,33.101562
226.800003,439.466675,121.199997,33.101562
223.199997,438.266663,120.533333,33.105469
227.866669,436.266663,121.73333,33.105469
227.199997,439.866669,121.333328,33.101562
227.600006,438.666656,121.199997,33.105469
223.733337,436.266663,121.866669,33.105469
222.0,438.0,120.533333,33.105469
232.933334,440.400024,122.266663,33.105469
216.399994,437.733337,120.400002,33.105469
228.0,440.0,114.933327,33.101562
213.733337,437.06665,121.199997,33.101562
227.066666,443.866638,121.73333,33.101562
217.733322,434.399994,119.466667,33.105469
232.666656,440.0,121.866669,33.105469
217.199997,434.799988,120.400002,33.101562
225.866669,437.866669,120.933334,33.105469
222.933334,436.533325,119.866669,33.105469
227.333344,444.933319,122.0,33.105469
216.53334,439.199982,109.866669,33.105469
227.199997,439.333344,121.333328,33.101562
213.600006,437.466675,120.533333,33.105469
229.333328,437.200012,122.666664,33.101562
218.133331,437.06665,123.599998,33.101562
229.733337,438.800018,121.466667,33.105469
214.266663,437.200012,120.133331,33.101562
228.666672,439.466675,127.466667,33.105469
213.199997,436.799988,120.133331,33.101562
219.333328,437.466675,120.266663,33.101562
229.06665,439.466675,120.933334,33.105469
220.0,439.06665,121.333328,33.105469
218.266663,434.933319,121.066666,33.101562
220.266663,437.466675,126.0,33.105469
228.533325,440.133331,120.666664,33.101562
220.400009,439.06665,120.266663,33.105469
218.666672,429.599976,120.133331,33.101562
219.466675,437.200012,123.46666,33.101562
224.666672,439.733307,121.199997,33.105469
222.800003,438.533325,121.199997,33.101562
219.06665,445.066681,119.599998,33.101562
223.333344,436.666687,119.866669,33.101562
222.933334,440.533325,120.933334,33.101562
221.733337,443.733337,120.533333,33.101562
220.800003,434.0,120.266663,33.101562
216.53334,437.06665,114.666664,33.101562
218.266663,438.399994,114.666664,33.101562
225.466675,440.533325,124.399994,33.101562
224.266663,438.666656,120.800003,33.101562
228.933334,444.399994,121.466667,33.101562
223.066681,438.666656,121.066666,33.101562
223.600006,438.0,121.199997,33.101562
225.733337,436.533325,121.066666,33.101562
228.533325,440.133331,124.533325,33.101562
221.866669,438.266663,121.199997,33.101562
225.200012,440.800018,121.333328,33.101562
226.933319,446.0,121.466667,33.101562
227.866669,440.533325,120.133331,33.097656
223.600006,437.866669,121.066666,33.101562
224.933334,439.199982,117.066666,33.101562
224.0,437.06665,127.466667,33.101562
222.666656,440.533325,121.73333,33.097656
218.0,441.733337,120.266663,33.101562
224.799988,439.466675,114.799995,33.101562
225.599991,439.199982,121.066666,33.101562
229.06665,440.133331,115.466675,33.097656
217.600006,437.466675,125.066673,33.101562
230.133347,440.266693,121.199997,33.101562
222.399994,441.06665,120.800003,33.101562
229.599991,440.533325,125.066673,33.101562
221.333328,437.733337,121.333328,33.101562
227.866669,437.333344,121.599998,33.097656
224.533325,437.06665,120.800003,33.101562
226.133331,438.533325,112.399994,33.101562
217.866669,438.0,120.800003,33.097656
226.53334,436.0,121.066666,33.101562
217.46666,437.06665,116.666672,33.101562
221.466675,440.93335,120.666664,33.101562
223.066681,438.533325,114.266663,33.101562
228.133331,441.333344,121.199997,33.101562
212.266678,437.200012,119.733337,33.101562
222.399994,437.599976,120.400002,33.101562
221.066666,439.599976,121.066666,33.097656
225.200012,435.200012,120.800003,33.097656
218.399994,436.933319,123.066666,33.097656
218.0,432.0,120.266663,33.097656
224.533325,439.466675,114.266663,33.097656
225.200012,439.199982,120.800003,33.101562
215.200012,437.733337,119.466667,33.101562
218.533325,435.733337,123.866661,33.097656
226.266663,445.466644,121.599998,33.097656
221.466675,438.0,115.200005,33.101562
219.866653,439.466675,121.466667,33.101562
215.466675,434.266663,120.0,33.097656
228.266663,440.266693,125.066673,33.101562
224.133331,437.733337,119.866669,33.101562
222.53334,443.733337,120.266663,33.101562
216.266663,436.799988,119.866669,33.101562
228.266663,435.733337,121.866669,33.097656
216.266663,436.933319,126.933334,33.101562
226.133331,440.533325,121.599998,33.101562
220.266663,438.0,115.066673,33.097656
228.933334,440.266693,121.466667,33.097656
217.46666,429.733307,121.466667,33.097656
229.466675,439.866669,116.800003,33.097656
219.199997,439.199982,121.199997,33.101562
226.133331,430.800018,121.466667,33.101562
218.399994,436.533325,118.26667,33.101562
228.266663,446.399994,122.533333,33.097656
230.666672,438.93335,122.133331,33.097656
218.799988,441.06665,121.466667,33.097656
222.399994,439.333344,113.599998,33.101562
224.400009,439.199982,121.466667,33.097656
227.866669,433.733337,121.73333,33.097656
219.733337,437.200012,114.133331,33.097656
222.133331,440.0,121.333328,33.101562
222.399994,433.600006,121.73333,33.101562
230.533325,440.133331,122.266663,33.097656
218.399994,436.799988,115.733337,33.097656
234.933334,440.400024,123.066666,33.097656
217.866669,443.866638,120.533333,33.097656
224.266663,438.800018,124.533325,33.097656
224.799988,437.599976,122.0,33.09375
228.799988,444.0,122.0,33.097656
217.733322,437.333344,123.599998,33.097656
220.800003,432.93335,120.666664,33.097656
222.399994,438.666656,114.666664,33.097656
227.199997,439.599976,119.733337,33.097656
218.0,441.06665,120.933334,33.097656
220.93335,437.333344,120.400002,33.097656
226.933319,443.866638,121.466667,33.097656
223.333344,438.533325,115.600006,33.097656
221.200012,438.266663,125.333336,33.097656
217.066666,434.533356,118.26667,33.097656
216.266663,438.399994,121.199997,33.097656
227.866669,437.599976,121.333328,33.097656
212.133331,437.333344,119.866669,33.097656
218.266663,435.466644,124.399994,33.097656
231.600006,439.866669,120.800003,33.097656
223.733337,443.733337,121.866669,33.097656
222.266678,438.266663,124.933327,33.097656
218.799988,443.466675,120.0,33.097656
227.733322,439.06665,117.600006,33.09375
222.666656,438.0,125.600006,33.097656
224.0,442.400024,121.599998,33.097656
217.866669,436.666687,124.933327,33.097656
232.0,440.400024,122.533333,33.097656
219.333328,440.93335,121.73333,33.09375
214.666672,437.466675,120.533333,33.097656
220.266663,437.06665,120.533333,33.097656
228.399994,440.0,126.400002,33.097656
222.666656,437.333344,120.266663,33.097656
227.600006,447.333344,122.0,33.097656
222.133331,438.0,120.933334,33.097656
223.333344,440.533325,122.0,33.097656
217.333344,436.533325,113.866661,33.097656
223.066681,439.599976,121.466667,33.097656
224.933334,440.0,121.73333,33.097656
217.866669,438.133301,110.800003,33.097656
233.333344,440.133331,121.73333,33.097656
217.600006,436.399994,115.066673,33.097656
223.199997,444.533356,121.333328,33.097656
220.533325,434.666687,122.0,33.097656
227.066666,440.0,122.266663,33.097656
213.199997,437.200012,120.0,33.097656
220.666672,437.599976,120.400002,33.097656
228.266663,440.0,115.733337,33.097656
220.93335,438.0,121.199997,33.097656
224.533325,436.533325,121.599998,33.09375
222.399994,437.06665,120.533333,33.09375
227.46666,440.0,115.066673,33.09375
216.800003,437.333344,120.400002,33.097656
221.200012,440.133331,120.666664,33.09375
218.266663,437.06665,113.866661,33.097656
229.866653,440.666656,121.599998,33.09375
216.666656,434.0,120.400002,33.097656
228.0,439.599976,124.266663,33.09375
219.06665,442.400024,120.933334,33.097656
225.333328,439.866669,126.666672,33.09375
219.599991,438.533325,112.666664,33.09375
228.399994,440.266693,126.26667,33.09375
225.333328,443.200012,121.066666,33.097656
219.466675,437.466675,120.800003,33.09375
216.133331,438.800018,120.800003,33.09375
226.933319,432.266663,121.199997,33.09375
224.666672,438.93335,121.73333,33.09375
232.800003,439.733307,121.333328,33.09375
214.400009,437.333344,120.266663,33.097656
228.533325,437.866669,122.399994,33.09375
222.666656,441.333344,121.199997,33.09375
222.133331,438.133301,124.266663,33.09375
224.0,443.333313,120.133331,33.09375
225.466675,440.266693,111.599998,33.09375
231.200012,440.533325,121.866669,33.09375
218.533325,435.600006,120.666664,33.09375
223.600006,438.800018,113.73333,33.09375
227.333344,439.466675,121.333328,33.09375
229.333328,440.666656,124.0,33.09375
210.0,437.466675,121.066666,33.09375
227.46666,437.466675,121.73333,33.09375
222.666656,437.866669,128.933334,33.09375
226.266663,440.800018,122.133331,33.09375
217.600006,440.666656,120.666664,33.09375
226.266663,439.599976,116.26667,33.09375
225.333328,438.93335,125.466675,33.09375
224.266663,440.400024,121.73333,33.09375
218.0,436.533325,113.73333,33.089844
218.933334,440.0,122.133331,33.09375
220.133347,441.333344,120.933334,33.09375
227.066666,439.06665,121.599998,33.09375
220.800003,437.06665,120.933334,33.09375
224.666672,440.666656,121.466667,33.09375
220.400009,433.600006,121.333328,33.089844
228.666672,439.733307,121.866669,33.09375
218.533325,443.466675,120.400002,33.09375
228.533325,436.0,122.133331,33.09375
219.599991,437.200012,124.533325,33.09375
221.733337,439.466675,121.333328,33.09375
221.333328,438.266663,115.866669,33.09375
228.799988,440.400024,122.666664,33.09375
222.800003,437.06665,120.933334,33.09375
221.466675,437.599976,116.666672,33.089844
222.800003,438.800018,121.199997,33.09375
229.333328,439.333344,121.466667,33.09375
220.400009,437.06665,114.266663,33.089844
223.199997,439.866669,121.466667,33.09375
218.666672,437.06665,115.333336,33.089844
224.533325,444.533356,121.333328,33.089844
219.599991,433.333313,120.933334,33.09375
221.466675,438.0,120.133331,33.089844
223.46666,442.533325,121.599998,33.09375
223.600006,438.133301,114.799995,33.089844
219.599991,437.599976,120.800003,33.09375
217.066666,438.133301,120.933334,33.09375
223.733337,435.333313,121.599998,33.089844
226.933319,438.93335,124.533325,33.09375
222.53334,443.333313,121.466667,33.089844
217.333344,437.06665,123.73333,33.09375
234.799988,440.666656,121.866669,33.089844
217.46666,437.466675,112.933334,33.089844
224.799988,440.0,124.666664,33.09375
217.066666,440.400024,120.400002,33.089844
228.933334,439.599976,125.466675,33.089844
221.333328,437.733337,120.933334,33.089844
226.933319,443.866638,121.866669,33.09375
222.266678,438.666656,125.733337,33.089844
224.799988,442.799988,120.400002,33.089844
218.933334,439.199982,109.733337,33.089844
229.733337,440.533325,128.266663,33.089844
216.933319,439.199982,120.666664,33.089844
227.600006,445.866669,121.066666,33.089844
218.266663,436.933319,124.133331,33.089844
229.466675,440.93335,122.266663,33.089844
225.066666,432.666656,121.066666,33.089844
225.333328,438.666656,116.26667,33.089844
220.266663,437.333344,123.333328,33.089844
230.266663,441.06665,122.133331,33.089844
225.599991,438.93335,121.066666,33.089844
224.266663,440.400024,122.0,33.089844
217.46666,440.93335,120.666664,33.089844
228.0,436.799988,121.73333,33.089844
222.933334,438.266663,113.46666,33.089844
231.466675,439.199982,121.333328,33.089844
222.933334,437.466675,120.933334,33.089844
228.0,443.200012,122.266663,33.089844
223.199997,436.133362,120.666664,33.089844
228.0,437.200012,121.599998,33.089844
218.533325,438.93335,108.26667,33.089844
228.666672,440.666656,121.73333,33.085938
227.066666,446.133362,121.066666,33.089844
223.866669,441.866699,121.599998,33.089844
220.400009,434.933319,121.73333,33.09375
222.399994,438.800018,114.266663,33.089844
218.666672,437.599976,118.800003,33.085938
228.266663,445.733337,122.399994,33.089844
218.666672,435.200012,121.199997,33.089844
220.266663,434.799988,121.066666,33.089844
228.266663,439.733307,121.066666,33.089844
222.266678,437.599976,119.866669,33.089844
227.46666,439.466675,115.866669,33.089844
225.333328,437.333344,120.666664,33.089844
217.733322,432.93335,120.133331,33.089844
228.133331,441.733337,127.466667,33.089844
225.866669,438.0,120.933334,33.089844
224.666672,434.799988,121.066666,33.085938
221.600006,437.599976,120.266663,33.089844
224.933334,434.266663,121.333328,33.089844
218.799988,437.733337,114.533325,33.089844
229.866653,439.866669,124.799995,33.089844
217.46666,434.0,120.266663,33.085938
230.133347,440.266693,129.733337,33.089844
221.600006,438.133301,121.066666,33.089844
229.333328,439.199982,120.666664,33.085938
220.133347,437.466675,113.73333,33.089844
222.0,440.266693,120.133331,33.085938
219.866653,441.600006,121.466667,33.085938
217.199997,440.93335,120.0,33.089844
221.333328,438.0,124.133331,33.085938
223.46666,439.199982,121.333328,33.089844
225.066666,441.733337,120.800003,33.089844
220.133347,437.866669,114.799995,33.089844
221.600006,437.733337,120.533333,33.085938
221.333328,439.866669,120.933334,33.085938
225.599991,445.600006,120.933334,33.085938
217.866669,434.266663,120.400002,33.085938
222.800003,437.06665,120.800003,33.085938
221.600006,440.0,120.400002,33.085938
225.333328,442.666656,121.866669,33.089844
218.933334,437.866669,113.73333,33.089844
222.0,438.0,121.599998,33.089844
224.666672,444.933319,120.133331,33.085938
224.400009,436.533325,120.800003,33.085938
219.333328,437.333344,114.533325,33.085938
224.799988,437.733337,120.933334,33.089844
225.066666,443.200012,120.933334,33.085938
224.933334,436.133362,121.066666,33.089844
228.399994,438.533325,120.0,33.085938
218.933334,443.200012,119.866669,33.085938
228.933334,439.733307,127.200005,33.085938
219.866653,437.06665,124.933327,33.085938
224.133331,439.866669,121.199997,33.085938
213.866669,437.599976,120.0,33.085938
228.933334,445.600006,120.533333,33.085938
218.533325,437.466675,123.46666,33.085938
224.133331,440.800018,121.599998,33.085938
221.866669,436.0,120.933334,33.085938
228.399994,439.866669,116.53334,33.085938
221.600006,436.799988,120.533333,33.082031
228.533325,437.06665,122.0,33.085938
231.200012,440.133331,122.0,33.082031
217.733322,438.266663,119.866669,33.089844
222.933334,442.400024,121.466667,33.085938
227.46666,437.466675,121.333328,33.085938
227.199997,440.133331,124.799995,33.085938
223.066681,438.0,121.73333,33.082031
223.46666,445.600006,120.400002,33.085938
226.800003,433.600006,120.933334,33.085938
235.333328,440.666656,122.266663,33.085938
217.866669,434.0,120.0,33.085938
227.866669,440.0,116.0,33.085938
223.46666,440.0,125.200005,33.085938
228.0,445.066681,121.599998,33.085938
216.933319,436.799988,123.73333,33.085938
235.466675,440.800018,122.0,33.085938
218.266663,443.733337,120.133331,33.085938
225.599991,438.666656,124.133331,33.085938
218.799988,437.866669,120.266663,33.085938
227.333344,432.400024,121.466667,33.085938
218.666672,437.733337,120.400002,33.085938
216.53334,438.0,120.800003,33.085938
221.466675,436.399994,120.933334,33.082031
227.46666,441.333344,119.199997,33.085938
217.46666,437.733337,119.733337,33.085938
220.800003,439.333344,120.933334,33.085938
219.333328,443.066681,120.800003,33.085938
229.599991,441.733337,111.73333,33.085938
220.93335,437.06665,120.400002,33.082031
224.400009,435.733337,121.066666,33.082031
221.200012,438.399994,114.533325,33.082031
230.0,440.800018,121.466667,33.082031
219.599991,438.0,120.266663,33.082031
222.266678,438.133301,121.73333,33.082031
219.199997,439.599976,119.866669,33.082031
227.066666,444.133331,121.333328,33.082031
218.266663,436.266663,116.53334,33.085938
217.199997,438.0,120.666664,33.082031
226.0,440.400024,127.200005,33.082031
226.266663,439.333344,120.666664,33.082031
223.066681,438.133301,121.199997,33.085938
218.399994,437.200012,128.0,33.082031
228.799988,446.0,122.133331,33.082031
219.333328,434.533356,120.933334,33.082031
225.066666,439.733307,114.666664,33.082031
220.133347,434.933319,120.400002,33.085938
224.266663,439.466675,114.533325,33.082031
225.866669,439.599976,125.600006,33.082031
223.199997,437.599976,120.0,33.082031
221.600006,432.93335,121.066666,33.085938
222.266678,438.133301,115.466675,33.082031
228.933334,440.0,124.133331,33.085938
222.133331,437.333344,119.599998,33.082031
221.466675,437.866669,113.866661,33.082031
222.266678,438.666656,124.533325,33.082031
230.0,440.133331,120.266663,33.082031
210.800003,437.733337,120.133331,33.082031
221.600006,437.333344,113.46666,33.082031
222.53334,439.06665,120.666664,33.082031
230.800003,440.533325,121.466667,33.082031
217.733322,443.600006,119.466667,33.082031
224.533325,439.466675,115.600006,33.082031
218.933334,437.466675,124.533325,33.082031
222.800003,440.93335,121.866669,33.082031
216.800003,436.533325,114.933327,33.082031
219.866653,441.866699,120.800003,33.082031
227.733322,440.133331,120.933334,33.082031
221.200012,444.133331,121.199997,33.082031
224.266663,438.800018,114.533325,33.082031
218.266663,442.0,120.266663,33.082031
228.799988,437.733337,122.133331,33.082031
221.333328,437.733337,126.133339,33.082031
226.800003,439.866669,120.933334,33.082031
218.266663,437.599976,112.666664,33.082031
228.399994,439.733307,124.133331,33.082031
217.333344,443.333313,120.400002,33.078125
224.0,437.333344,121.066666,33.078125
216.800003,438.266663,120.800003,33.078125
228.933334,436.933319,121.466667,33.078125
218.933334,437.200012,114.533325,33.082031
229.333328,440.533325,121.599998,33.082031
218.533325,431.06665,120.533333,33.082031
228.133331,440.133331,121.866669,33.082031
213.733337,437.06665,119.466667,33.078125
226.399994,442.400024,121.066666,33.082031
224.533325,438.266663,120.933334,33.078125
228.799988,446.266663,120.400002,33.082031
216.800003,437.200012,123.599998,33.082031
232.266678,440.666656,122.133331,33.078125
222.666656,438.266663,114.533325,33.078125
229.466675,440.266693,121.466667,33.082031
217.46666,440.666656,120.533333,33.082031
229.866653,440.800018,116.800003,33.078125
227.600006,434.933319,121.333328,33.078125
220.800003,437.733337,124.399994,33.082031
220.0,439.733307,120.666664,33.082031
221.866669,437.599976,115.066673,33.078125
228.533325,434.0,120.533333,33.082031
218.533325,437.200012,114.133331,33.078125
229.466675,440.666656,120.800003,33.078125
222.800003,437.733337,119.866669,33.078125
228.266663,437.200012,121.466667,33.078125
218.799988,437.200012,115.333336,33.078125
233.066681,440.533325,122.666664,33.078125
220.533325,442.93335,120.800003,33.078125
228.666672,440.133331,119.466667,33.078125
219.199997,437.466675,119.866669,33.078125
227.600006,443.333313,121.866669,33.078125
220.0,434.399994,120.933334,33.078125
222.266678,440.0,121.199997,33.078125
224.266663,438.93335,120.800003,33.078125
228.533325,439.733307,121.466667,33.078125
216.53334,443.466675,119.733337,33.078125
220.666672,437.466675,124.266663,33.078125
222.800003,440.0,120.266663,33.078125
224.133331,442.0,121.333328,33.078125
220.266663,438.533325,112.799995,33.078125
214.533325,437.733337,119.733337,33.078125
228.533325,439.599976,129.600006,33.078125
219.599991,438.0,120.400002,33.078125
226.0,443.066681,120.666664,33.078125
221.066666,438.266663,120.400002,33.078125
232.800003,440.133331,121.73333,33.078125
217.46666,441.199982,119.733337,33.078125
228.666672,440.666656,120.666664,33.078125
223.46666,443.200012,120.800003,33.078125
224.666672,436.799988,121.333328,33.078125
219.866653,438.666656,120.800003,33.078125
224.266663,434.533356,120.933334,33.078125
230.666672,440.133331,121.73333,33.074219
216.53334,438.533325,119.333336,33.082031
228.0,439.599976,128.0,33.074219
222.933334,438.399994,120.933334,33.078125
226.666656,435.600006,121.066666,33.078125
218.533325,436.933319,114.133331,33.078125
229.199997,440.266693,124.399994,33.078125
215.333328,437.333344,120.533333,33.078125
225.200012,438.800018,116.933334,33.078125
219.866653,438.0,120.266663,33.074219
233.46666,440.533325,121.466667,33.078125
217.866669,436.533325,114.666664,33.078125
224.400009,438.533325,120.933334,33.078125
224.533325,438.800018,121.066666,33.078125
225.333328,440.666656,121.333328,33.078125
217.600006,440.800018,120.400002,33.074219
222.666656,438.133301,120.533333,33.074219
223.199997,442.400024,120.400002,33.078125
221.200012,437.466675,120.533333,33.078125
226.800003,439.866669,120.933334,33.074219
218.0,433.600006,120.266663,33.074219
229.199997,440.400024,115.733337,33.074219
219.866653,437.466675,125.866669,33.074219
231.066666,440.266693,121.333328,33.074219
220.800003,438.266663,114.933327,33.074219
229.599991,440.133331,125.333336,33.074219
208.933334,436.799988,119.199997,33.078125
224.799988,440.800018,121.333328,33.078125
222.53334,437.200012,121.599998,33.078125
228.266663,439.733307,124.666664,33.074219
218.933334,437.599976,120.266663,33.074219
234.533325,440.533325,122.133331,33.078125
221.333328,433.866638,120.533333,33.074219
228.533325,440.533325,113.73333,33.078125
217.46666,437.333344,127.466667,33.074219
220.400009,440.800018,122.133331,33.074219
223.199997,430.800018,120.266663,33.074219
224.666672,439.06665,120.533333,33.074219
225.466675,438.0,120.800003,33.074219
227.066666,435.066681,120.933334,33.074219
227.600006,440.266693,124.399994,33.074219
223.733337,438.666656,121.066666,33.078125
224.133331,440.0,120.266663,33.074219
228.266663,443.866638,121.066666,33.074219
222.53334,437.06665,120.533333,33.078125
226.53334,439.199982,115.066673,33.074219
219.06665,437.733337,124.933327,33.074219
226.666656,442.400024,120.933334,33.074219
228.533325,440.533325,121.466667,33.074219
227.46666,437.599976,121.466667,33.074219
216.800003,438.93335,119.866669,33.074219
227.333344,445.466644,118.26667,33.070312
229.733337,440.666656,121.066666,33.074219
218.0,442.533325,119.599998,33.074219
227.199997,439.466675,116.666672,33.070312
221.200012,438.133301,124.933327,33.074219
223.333344,437.866669,127.200005,33.070312
218.133331,438.93335,120.800003,33.070312
222.266678,439.199982,112.666664,33.074219
220.533325,437.466675,128.133331,33.074219
217.733322,443.333313,119.466667,33.074219
228.533325,440.133331,114.666664,33.070312
220.133347,437.200012,124.933327,33.074219
223.866669,439.599976,120.666664,33.074219
214.400009,437.866669,119.733337,33.074219
228.133331,433.600006,121.333328,33.070312
220.666672,436.266663,117.866669,33.074219
232.399994,439.599976,120.0,33.074219
219.733337,443.200012,120.266663,33.074219
229.199997,437.466675,121.599998,33.074219
217.733322,437.06665,119.866669,33.074219
232.933334,440.400024,121.066666,33.074219
219.199997,444.0,120.400002,33.070312
229.333328,436.266663,122.533333,33.070312
218.666672,437.599976,114.666664,33.074219
225.733337,439.733307,124.666664,33.074219
214.799988,437.866669,120.133331,33.070312
228.0,444.133331,122.133331,33.074219
219.466675,434.133331,120.133331,33.070312
224.933334,439.199982,115.200005,33.074219
223.333344,437.06665,120.400002,33.070312
225.866669,440.800018,120.800003,33.074219
219.733337,441.600006,120.266663,33.070312
228.133331,439.733307,124.266663,33.074219
216.933319,436.799988,120.266663,33.070312
229.866653,446.666687,121.73333,33.070312
219.866653,443.600006,119.466667,33.070312
227.46666,440.266693,125.066673,33.070312
224.0,443.866638,120.800003,33.070312
223.866669,436.266663,121.066666,33.070312
219.199997,437.200012,113.599998,33.070312
228.399994,440.266693,126.26667,33.070312
225.599991,445.600006,120.933334,33.074219
221.066666,437.333344,118.400002,33.074219
230.133347,439.866669,120.400002,33.070312
229.466675,439.733307,121.199997,33.070312
229.199997,439.866669,125.066673,33.074219
212.266678,437.866669,119.733337,33.074219
228.799988,441.06665,112.799995,33.070312
217.46666,437.06665,120.0,33.070312
227.066666,438.800018,120.933334,33.070312
222.266678,436.266663,120.400002,33.070312
226.0,440.0,116.26667,33.070312
217.866669,436.399994,123.199997,33.070312
217.333344,437.733337,120.666664,33.070312
222.399994,440.0,121.199997,33.070312
224.933334,438.533325,119.599998,33.070312
222.800003,437.599976,120.266663,33.070312
218.666672,437.06665,110.0,33.070312
218.533325,437.333344,114.133331,33.070312
224.933334,440.0,119.333336,33.070312
228.266663,439.333344,120.666664,33.070312
229.199997,440.0,122.0,33.070312
217.199997,443.066681,120.533333,33.070312
228.266663,440.800018,115.066673,33.066406
213.46666,437.733337,120.133331,33.070312
224.933334,438.93335,116.0,33.070312
220.266663,437.866669,125.200005,33.070312
232.53334,440.666656,122.399994,33.070312
218.799988,441.466675,120.800003,33.070312
225.333328,438.533325,124.799995,33.070312
223.066681,437.866669,121.199997,33.066406
227.199997,435.866669,122.666664,33.070312
218.266663,437.333344,123.066666,33.070312
226.800003,439.06665,121.333328,33.070312
218.933334,443.200012,120.533333,33.070312
229.466675,437.733337,121.466667,33.070312
218.666672,436.933319,128.266663,33.070312
222.666656,430.266693,121.066666,33.070312
219.866653,438.0,114.399994,33.066406
228.399994,440.533325,121.199997,33.066406
220.93335,437.599976,120.800003,33.070312
226.399994,436.666687,121.066666,33.070312
219.466675,437.200012,126.400002,33.070312
236.53334,440.533325,122.933334,33.066406
217.600006,434.533356,120.666664,33.066406
228.933334,438.0,121.333328,33.070312
216.933319,439.06665,120.666664,33.070312
228.533325,443.600006,122.0,33.070312
217.866669,437.733337,114.0,33.066406
219.733337,440.666656,120.933334,33.066406
224.0,436.666687,120.933334,33.070312
227.333344,439.333344,116.133339,33.070312
218.799988,437.06665,123.73333,33.066406
216.53334,437.866669,120.933334,33.066406
223.199997,442.93335,121.73333,33.066406
225.866669,436.399994,121.466667,33.066406
218.533325,437.200012,113.599998,33.066406
222.133331,439.06665,121.333328,33.066406
224.666672,438.666656,118.400002,33.066406
224.799988,440.666656,121.333328,33.066406
218.133331,434.533356,120.800003,33.066406
222.53334,438.533325,126.0,33.066406
225.333328,438.666656,121.066666,33.066406
224.933334,440.400024,121.466667,33.066406
219.199997,437.599976,124.133331,33.066406
223.199997,437.733337,120.933334,33.066406
221.066666,439.733307,120.400002,33.066406
225.200012,443.066681,121.866669,33.066406
217.600006,434.266663,120.666664,33.066406
222.666656,438.133301,126.133339,33.066406
228.0,438.666656,121.199997,33.066406
222.800003,439.866669,121.199997,33.066406
217.733322,441.733337,120.533333,33.066406
224.0,437.06665,120.533333,33.066406
221.600006,440.266693,121.466667,33.066406
222.933334,432.93335,121.066666,33.066406
218.933334,437.599976,114.133331,33.066406
223.600006,438.0,120.666664,33.0625
218.399994,440.0,121.199997,33.066406
226.53334,443.600006,121.199997,33.066406
220.93335,437.466675,113.599998,33.066406
217.333344,433.600006,119.866669,33.066406
234.533325,440.0,122.266663,33.066406
216.133331,437.733337,120.133331,33.066406
223.600006,435.200012,121.599998,33.066406
223.600006,436.933319,120.266663,33.066406
226.0,440.800018,122.133331,33.066406
218.933334,433.066681,120.666664,33.066406
223.733337,439.333344,114.933327,33.066406
222.266678,437.599976,120.0,33.066406
225.066666,440.400024,121.466667,33.0625
217.600006,437.466675,114.933327,33.066406
230.400009,440.666656,121.866669,33.0625
216.0,438.0,120.400002,33.066406
229.199997,445.066681,122.399994,33.066406
218.666672,434.399994,118.933334,33.066406
228.0,440.400024,124.799995,33.066406
222.266678,442.533325,121.066666,33.066406
226.133331,439.599976,115.066673,33.066406
219.199997,437.466675,113.599998,33.0625
230.133347,440.533325,124.666664,33.066406
221.333328,439.466675,120.933334,33.066406
222.266678,434.133331,120.800003,33.0625
220.0,438.399994,114.933327,33.0625
232.0,439.866669,121.599998,33.066406
229.333328,440.533325,115.600006,33.0625
218.799988,436.933319,123.866661,33.0625
223.333344,440.133331,121.866669,33.0625
221.733337,444.133331,121.466667,33.0625
228.0,437.466675,122.0,33.0625
218.266663,437.333344,112.666664,33.0625
224.799988,440.266693,122.266663,33.0625
217.333344,438.800018,120.666664,33.0625
235.599991,440.666656,121.73333,33.0625
222.399994,438.399994,121.73333,33.0625
218.399994,439.333344,120.666664,33.066406
226.53334,434.799988,120.933334,33.0625
229.333328,440.133331,121.466667,33.0625
226.399994,438.0,121.333328,33.0625
220.666672,440.0,121.199997,33.0625
225.866669,443.600006,121.466667,33.0625
226.933319,440.400024,129.333328,33.0625
220.800003,438.266663,120.933334,33.0625
220.400009,439.599976,120.133331,33.066406
222.933334,437.333344,113.066666,33.0625
225.866669,440.133331,121.73333,33.0625
227.866669,446.266663,122.399994,33.0625
218.666672,437.733337,113.066666,33.0625
225.599991,439.06665,121.199997,33.0625
219.733337,443.066681,120.666664,33.0625
228.666672,440.133331,115.600006,33.0625
212.933334,437.333344,119.866669,33.0625
222.133331,437.599976,115.866669,33.0625
223.733337,438.533325,125.600006,33.0625
229.466675,440.0,121.73333,33.0625
217.46666,443.600006,119.466667,33.0625
223.733337,438.266663,115.466675,33.0625
221.066666,437.866669,121.599998,33.0625
224.666672,436.933319,121.333328,33.058594
219.06665,437.200012,123.599998,33.0625
217.733322,437.599976,120.933334,33.0625
222.933334,439.333344,113.866661,33.0625
218.666672,438.133301,121.066666,33.0625
220.266663,434.399994,120.800003,33.0625
220.0,438.0,120.533333,33.0625
220.400009,439.866669,120.666664,33.0625
223.733337,433.333313,121.866669,33.058594
226.666656,438.133301,120.933334,33.058594
218.666672,432.666656,120.133331,33.0625
226.133331,439.06665,129.066666,33.058594
230.266663,438.93335,121.466667,33.058594
220.400009,435.200012,120.133331,33.058594
220.400009,436.0,120.266663,33.0625
227.199997,445.466644,121.066666,33.058594
223.066681,440.0,110.666664,33.0625
221.600006,438.533325,121.599998,33.058594
218.399994,439.866669,120.666664,33.058594
225.066666,440.0,114.399994,33.0625
225.333328,439.199982,121.866669,33.058594
215.466675,438.133301,117.866669,33.058594
220.533325,437.333344,110.666664,33.0625
224.400009,439.599976,120.400002,33.058594
221.733337,440.0,121.73333,33.058594
217.333344,432.133331,119.866669,33.058594
217.333344,429.466675,120.400002,33.058594
226.666656,440.0,126.933334,33.0625
223.600006,438.800018,122.533333,33.058594
217.600006,438.533325,121.73333,33.058594
218.399994,437.333344,113.333328,33.058594
224.533325,440.133331,121.866669,33.0625
222.399994,435.866669,120.666664,33.058594
228.0,439.466675,121.466667,33.058594
218.533325,436.799988,111.73333,33.058594
222.933334,439.866669,121.599998,33.058594
218.0,436.799988,122.799995,33.058594
231.466675,440.666656,122.0,33.0625
227.866669,440.133331,125.600006,33.058594
227.733322,438.533325,121.599998,33.058594
218.0,438.93335,120.800003,33.058594
224.666672,438.533325,126.53334,33.058594
223.199997,440.93335,121.599998,33.0625
218.533325,434.933319,121.333328,33.058594
233.199997,440.400024,122.799995,33.058594
219.199997,438.533325,120.533333,33.058594
228.399994,440.800018,113.333328,33.058594
218.799988,436.933319,123.066666,33.058594
233.46666,440.133331,121.466667,33.058594
218.666672,435.200012,121.466667,33.058594
222.266678,440.133331,121.466667,33.058594
218.399994,430.800018,120.800003,33.058594
229.06665,440.400024,116.666672,33.058594
221.066666,437.599976,121.599998,33.058594
227.600006,440.533325,121.73333,33.054688
219.466675,437.466675,121.066666,33.058594
225.599991,436.266663,122.266663,33.054688
217.600006,437.200012,127.733337,33.058594
219.06665,433.200012,120.800003,33.058594
228.133331,440.400024,120.933334,33.058594
219.333328,437.333344,112.933334,33.054688
225.466675,440.266693,120.933334,33.054688
216.933319,443.333313,119.333336,33.054688
229.733337,440.533325,119.866669,33.054688
212.933334,438.133301,120.133331,33.058594
228.266663,440.400024,116.666672,33.058594
223.46666,436.266663,120.800003,33.058594
226.933319,439.599976,128.266663,33.058594
224.666672,437.733337,121.066666,33.054688
227.600006,436.799988,122.0,33.054688
228.533325,444.266663,122.0,33.058594
230.93335,440.0,122.666664,33.054688
216.800003,440.533325,120.800003,33.054688
228.933334,440.133331,116.133339,33.054688
218.399994,438.93335,121.333328,33.054688
227.733322,437.333344,122.133331,33.054688
224.400009,438.0,122.0,33.054688
228.0,446.266663,122.933334,33.054688
220.533325,440.93335,121.73333,33.054688
218.133331,437.733337,125.866669,33.058594
227.333344,439.466675,120.266663,33.054688
225.466675,442.93335,120.800003,33.054688
229.333328,446.799988,122.0,33.054688
218.266663,437.06665,114.533325,33.058594
225.466675,439.866669,121.73333,33.054688
219.733337,434.799988,120.666664,33.054688
222.800003,439.333344,111.866669,33.054688
222.133331,438.93335,121.333328,33.054688
229.199997,446.666687,121.73333,33.054688
217.199997,437.333344,123.46666,33.054688
219.866653,439.866669,121.066666,33.054688
220.400009,438.666656,110.666664,33.054688
222.399994,439.733307,119.733337,33.054688
220.0,438.533325,125.333336,33.054688
218.266663,437.200012,118.400002,33.054688
228.399994,446.266663,121.866669,33.054688
218.933334,435.466644,112.933334,33.054688
227.600006,446.0,121.333328,33.054688
223.333344,438.93335,120.800003,33.054688
227.333344,446.399994,121.466667,33.054688
218.666672,437.599976,114.666664,33.054688
224.933334,440.533325,121.73333,33.054688
224.666672,439.733307,124.399994,33.054688
224.799988,442.666656,121.599998,33.054688
218.799988,437.866669,115.066673,33.054688
233.733337,440.133331,121.73333,33.054688
228.799988,440.800018,120.933334,33.054688
218.0,434.533356,120.0,33.050781
226.0,439.733307,125.866669,33.054688
223.733337,445.333313,121.599998,33.054688
231.333328,440.666656,120.266663,33.054688
217.866669,441.199982,120.666664,33.050781
228.0,440.533325,115.200005,33.054688
228.666672,438.133301,121.333328,33.054688
229.06665,440.93335,114.266663,33.054688
214.400009,437.733337,119.733337,33.054688
227.600006,440.400024,125.466675,33.050781
215.866669,429.199982,120.266663,33.054688
223.066681,438.266663,120.933334,33.054688
222.399994,444.0,118.533333,33.054688
223.866669,436.933319,121.199997,33.054688
216.800003,438.133301,119.733337,33.050781
219.199997,437.599976,123.599998,33.050781
227.600006,440.0,121.066666,33.054688
220.93335,437.733337,114.399994,33.054688
227.333344,438.93335,121.73333,33.054688
217.600006,437.466675,115.200005,33.054688
225.066666,440.400024,122.399994,33.054688
220.0,435.200012,120.400002,33.050781
228.399994,446.799988,120.933334,33.054688
214.799988,439.866669,120.666664,33.050781
225.333328,442.799988,121.599998,33.050781
217.600006,437.466675,113.599998,33.050781
234.666672,440.800018,122.399994,33.050781
227.333344,440.533325,119.466667,33.050781
218.666672,438.93335,121.333328,33.050781
220.533325,431.866699,120.0,33.050781
229.466675,440.266693,126.800003,33.050781
228.666672,440.266693,116.26667,33.050781
215.733337,437.333344,120.133331,33.050781
227.600006,440.533325,115.600006,33.050781
224.666672,438.533325,120.933334,33.050781
228.533325,441.866699,112.799995,33.050781
218.0,437.333344,119.866669,33.050781
227.866669,440.93335,115.066673,33.046875
217.733322,437.866669,120.266663,33.050781
225.733337,436.933319,121.199997,33.050781
219.333328,437.333344,122.533333,33.050781
233.066681,440.93335,122.266663,33.050781
217.866669,441.466675,120.533333,33.050781
228.799988,445.466644,121.73333,33.050781
218.399994,437.06665,118.933334,33.050781
228.266663,431.866699,122.133331,33.046875
221.200012,437.333344,126.666672,33.050781
225.866669,439.06665,116.666672,33.050781
222.933334,438.399994,120.800003,33.050781
226.53334,439.333344,113.599998,33.046875
218.666672,437.733337,119.466667,33.050781
220.0,430.0,120.666664,33.050781
221.600006,438.800018,114.666664,33.050781
233.199997,440.266693,121.199997,33.046875
218.0,439.733307,113.199997,33.050781
218.133331,443.333313,120.133331,33.046875
228.799988,440.0,125.066673,33.050781
222.266678,438.266663,120.266663,33.050781
224.799988,440.666656,110.400002,33.046875
212.800003,437.733337,119.866669,33.050781
229.199997,440.666656,116.0,33.050781
218.666672,437.866669,120.266663,33.050781
227.066666,434.666687,121.73333,33.046875
224.799988,438.266663,120.266663,33.050781
228.133331,432.533325,121.73333,33.046875
218.266663,437.200012,129.066666,33.050781
231.600006,440.266693,121.333328,33.046875
222.266678,438.533325,115.466675,33.046875
228.399994,440.800018,121.73333,33.046875
214.266663,438.266663,119.466667,33.046875
226.399994,437.866669,121.199997,33.046875
223.333344,438.266663,120.533333,33.046875
229.199997,444.666687,121.73333,33.046875
216.933319,437.200012,119.466667,33.046875
229.866653,446.799988,122.399994,33.046875
221.733337,438.399994,114.133331,33.046875
219.733337,440.133331,121.199997,33.046875
217.866669,432.799988,119.466667,33.046875
231.733337,440.266693,122.266663,33.050781
229.333328,440.666656,121.199997,33.046875
215.200012,438.399994,120.666664,33.046875
224.933334,439.333344,128.53334,33.046875
229.733337,439.199982,121.73333,33.050781
229.06665,440.400024,126.400002,33.046875
217.46666,436.933319,120.400002,33.046875
229.466675,437.333344,121.466667,33.042969
212.800003,437.333344,120.266663,33.046875
223.46666,438.399994,124.799995,33.046875
222.933334,445.466644,120.800003,33.046875
226.133331,440.133331,114.399994,33.046875
218.399994,437.466675,124.0,33.046875
219.466675,433.333313,120.533333,33.046875
226.666656,440.266693,119.866669,33.046875
221.200012,438.93335,121.599998,33.046875
220.133347,435.200012,120.533333,33.046875
225.200012,437.733337,120.800003,33.046875
228.399994,439.733307,115.600006,33.046875
221.733337,439.599976,120.800003,33.046875
224.266663,442.533325,121.333328,33.046875
217.066666,437.200012,122.933334,33.046875
233.333344,440.666656,121.599998,33.046875
217.866669,439.333344,110.133331,33.046875
225.466675,439.733307,125.733337,33.046875
213.600006,436.933319,119.866669,33.046875
227.199997,438.0,121.333328,33.046875
221.466675,438.266663,124.666664,33.046875
225.599991,439.333344,121.199997,33.042969
218.0,436.799988,125.733337,33.050781
234.666672,440.533325,121.599998,33.046875
217.733322,437.200012,115.466675,33.046875
228.133331,440.666656,118.800003,33.046875
216.399994,444.533356,120.400002,33.042969
229.466675,438.266663,121.73333,33.042969
218.266663,437.733337,120.266663,33.046875
226.800003,443.733337,122.0,33.046875
218.133331,437.733337,116.133339,33.046875
224.400009,442.266663,121.199997,33.042969
217.199997,434.133331,120.400002,33.046875
228.933334,440.266693,124.399994,33.042969
221.733337,442.0,121.066666,33.046875
228.266663,440.133331,116.800003,33.042969
216.133331,437.599976,119.733337,33.042969
228.399994,441.199982,111.866669,33.042969
227.733322,433.333313,121.333328,33.042969
222.800003,437.866669,129.199997,33.042969
228.0,439.06665,121.066666,33.046875
225.066666,438.133301,113.599998,33.042969
230.533325,447.333344,122.133331,33.046875
218.533325,437.333344,125.333336,33.046875
233.733337,440.400024,120.666664,33.042969
221.733337,444.266663,121.333328,33.042969
230.800003,440.800018,127.600006,33.042969
220.93335,437.733337,120.266663,33.042969
229.06665,440.0,114.266663,33.046875
213.600006,437.333344,119.599998,33.042969
215.599991,438.0,120.266663,33.046875
223.199997,436.666687,120.533333,33.042969
226.133331,438.93335,124.533325,33.042969
225.333328,438.0,121.333328,33.042969
218.0,437.466675,123.46666,33.042969
227.733322,444.933319,121.599998,33.042969
218.399994,437.599976,121.066666,33.042969
229.733337,440.533325,120.933334,33.042969
218.0,438.133301,113.066666,33.042969
229.866653,440.800018,125.866669,33.042969
222.53334,437.866669,119.599998,33.042969
226.133331,443.866638,120.933334,33.042969
220.0,441.06665,120.266663,33.042969
227.066666,440.133331,120.0,33.042969
218.0,440.533325,120.933334,33.042969
228.0,440.400024,121.199997,33.042969
221.600006,439.199982,114.666664,33.039062
230.266663,439.599976,121.333328,33.042969
218.0,440.666656,120.133331,33.039062
229.06665,440.666656,114.666664,33.042969
225.733337,434.0,120.800003,33.039062
226.133331,437.866669,120.800003,33.042969
225.066666,431.866699,121.066666,33.042969
226.800003,437.866669,121.199997,33.039062
227.46666,438.0,114.666664,33.042969
218.133331,443.600006,120.266663,33.042969
228.133331,441.199982,113.333328,33.042969
209.466675,437.06665,119.733337,33.039062
224.0,438.133301,114.266663,33.039062
227.733322,438.800018,120.266663,33.042969
224.666672,440.133331,121.866669,33.042969
217.600006,437.733337,123.333328,33.042969
219.199997,441.06665,120.800003,33.039062
224.0,439.599976,115.066673,33.042969
230.266663,438.666656,121.066666,33.039062
219.466675,444.533356,120.533333,33.042969
223.866669,437.06665,120.0,33.042969
227.333344,439.866669,116.53334,33.039062
219.866653,438.0,121.066666,33.039062
224.933334,446.0,120.266663,33.039062
216.266663,437.333344,123.199997,33.039062
235.066666,440.800018,122.399994,33.039062
218.666672,437.200012,112.666664,33.039062
227.199997,440.533325,120.800003,33.039062
225.066666,444.666687,121.066666,33.039062
222.53334,438.533325,120.400002,33.039062
224.400009,440.533325,120.133331,33.039062
215.733337,434.799988,120.400002,33.042969
229.333328,438.93335,121.333328,33.042969
220.0,443.066681,120.666664,33.039062
229.333328,440.533325,116.0,33.039062
218.266663,437.866669,119.733337,33.039062
223.46666,438.800018,110.933334,33.039062
222.266678,438.800018,119.599998,33.039062
223.600006,440.533325,121.466667,33.039062
217.866669,434.666687,119.599998,33.039062
227.199997,438.533325,121.599998,33.039062
221.733337,438.666656,114.799995,33.039062
232.133331,439.599976,121.599998,33.039062
216.800003,443.066681,119.866669,33.039062
218.666672,442.666656,120.0,33.039062
227.866669,440.133331,126.133339,33.039062
213.733337,438.0,121.066666,33.039062
227.333344,439.466675,115.466675,33.042969
214.799988,438.266663,120.266663,33.035156
228.533325,438.266663,121.599998,33.039062
217.733322,437.466675,123.199997,33.039062
230.400009,440.266693,120.666664,33.039062
222.666656,439.06665,118.666672,33.039062
223.199997,437.333344,120.533333,33.039062
218.799988,437.733337,123.333328,33.039062
227.066666,443.066681,121.333328,33.039062
227.46666,440.800018,120.800003,33.039062
216.399994,438.399994,120.933334,33.039062
221.333328,431.733337,120.800003,33.039062
228.399994,440.133331,127.200005,33.039062
229.599991,441.866699,109.199997,33.039062
210.800003,436.799988,120.133331,33.035156
226.666656,435.600006,121.066666,33.039062
225.866669,440.400024,121.333328,33.039062
235.200012,440.533325,121.333328,33.035156
222.133331,445.333313,121.333328,33.035156
226.666656,439.333344,127.066666,33.039062
218.799988,439.199982,121.466667,33.039062
229.466675,439.599976,127.733337,33.035156
217.066666,441.600006,119.599998,33.039062
232.800003,440.666656,122.0,33.035156
216.53334,439.199982,107.200005,33.035156
222.666656,438.666656,120.933334,33.039062
222.933334,436.133362,121.066666,33.039062
227.333344,439.599976,125.866669,33.039062
213.199997,437.200012,119.733337,33.035156
225.200012,437.599976,120.133331,33.039062
226.0,446.533325,121.866669,33.035156
222.800003,438.133301,124.933327,33.035156
224.0,438.666656,121.466667,33.035156
217.46666,437.333344,123.599998,33.035156
230.666672,440.533325,120.933334,33.035156
221.333328,442.0,120.800003,33.035156
231.866669,440.133331,120.933334,33.035156
218.533325,437.599976,121.599998,33.035156
235.599991,440.666656,122.0,33.039062
218.266663,440.800018,119.866669,33.035156
226.53334,440.266693,112.799995,33.039062
218.666672,444.399994,120.666664,33.035156
229.599991,440.133331,115.333336,33.035156
219.199997,437.866669,119.866669,33.035156
228.399994,439.599976,116.133339,33.035156
218.266663,439.599976,120.800003,33.035156
225.866669,434.533356,121.066666,33.035156
220.0,438.133301,120.400002,33.035156
227.866669,444.799988,122.133331,33.035156
226.800003,440.533325,121.066666,33.035156
223.333344,445.600006,121.199997,33.035156
220.266663,438.266663,114.533325,33.039062
232.800003,440.93335,122.399994,33.039062
222.800003,443.733337,120.400002,33.035156
230.0,438.266663,120.933334,33.035156
221.600006,444.933319,120.400002,33.035156
227.733322,439.599976,125.066673,33.035156
228.0,447.333344,121.199997,33.03125
222.399994,437.866669,113.866661,33.035156
222.800003,438.0,120.800003,33.03125
218.933334,440.533325,120.800003,33.035156
234.666672,440.400024,121.866669,33.035156
218.666672,441.466675,119.866669,33.035156
226.399994,437.200012,121.333328,33.035156
225.200012,438.93335,124.533325,33.035156
224.266663,440.93335,121.466667,33.035156
220.533325,431.866699,120.666664,33.035156
225.466675,440.0,122.533333,33.035156
218.933334,439.733307,121.466667,33.03125
229.866653,440.800018,120.933334,33.035156
211.866669,438.0,119.733337,33.035156
228.666672,440.133331,112.533333,33.035156
220.133347,438.0,120.933334,33.035156
226.933319,437.599976,121.333328,33.035156
222.0,438.133301,120.400002,33.035156
228.399994,445.733337,122.399994,33.035156
218.933334,437.333344,114.0,33.035156
221.066666,438.666656,110.666664,33.03125
225.733337,439.333344,120.800003,33.03125
224.133331,442.0,120.666664,33.03125
220.533325,437.866669,115.066673,33.03125
225.599991,440.266693,121.73333,33.03125
218.266663,431.466675,119.733337,33.03125
226.666656,440.0,114.666664,33.03125
221.466675,443.466675,120.533333,33.03125
228.133331,437.599976,120.666664,33.03125
218.399994,441.866699,120.266663,33.03125
229.06665,440.400024,115.200005,33.035156
216.666656,441.733337,119.733337,33.035156
224.533325,438.533325,124.266663,33.03125
215.333328,438.533325,121.199997,33.03125
227.866669,436.133362,121.333328,33.03125
220.800003,437.06665,121.333328,33.03125
219.866653,435.200012,120.666664,33.03125
233.199997,440.400024,121.199997,33.03125
223.333344,445.066681,121.066666,33.03125
224.133331,439.599976,126.800003,33.03125
218.133331,434.266663,120.0,33.03125
229.733337,440.400024,115.733337,33.03125
225.866669,437.866669,120.533333,33.03125
223.866669,446.399994,120.533333,33.03125
220.666672,437.866669,120.400002,33.03125
227.199997,440.0,112.799995,33.03125
218.266663,438.0,119.866669,33.03125
229.06665,440.133331,116.26667,33.027344
227.600006,445.466644,121.199997,33.03125
224.799988,438.666656,115.066673,33.03125
219.199997,438.533325,120.400002,33.03125
225.333328,438.93335,115.466675,33.03125
225.200012,440.400024,121.466667,33.03125
220.133347,434.799988,120.800003,33.03125
226.666656,440.0,120.533333,33.03125
220.800003,439.333344,120.933334,33.027344
229.599991,440.93335,121.73333,33.03125
218.133331,437.866669,112.133331,33.03125
222.53334,440.666656,121.73333,33.03125
217.733322,435.066681,120.266663,33.03125
221.333328,441.466675,120.933334,33.03125
220.666672,438.533325,114.399994,33.03125
223.333344,442.133331,121.333328,33.03125
219.06665,438.133301,114.933327,33.027344
215.200012,438.0,120.533333,33.027344
224.666672,437.333344,121.333328,33.03125
226.399994,439.466675,123.73333,33.03125
222.266678,437.599976,120.666664,33.027344
221.733337,438.93335,112.933334,33.027344
223.46666,439.866669,121.466667,33.03125
222.800003,436.0,121.199997,33.03125
225.733337,439.199982,120.933334,33.03125
218.133331,437.200012,114.266663,33.027344
229.199997,441.06665,121.466667,33.03125
217.066666,437.333344,114.0,33.027344
224.266663,439.866669,121.066666,33.027344
222.133331,438.266663,124.266663,33.027344
231.866669,440.93335,122.133331,33.027344
218.266663,434.799988,120.133331,33.027344
229.866653,440.93335,121.333328,33.027344
220.93335,435.866669,120.800003,33.027344
227.733322,440.400024,125.733337,33.027344
209.866653,437.733337,119.866669,33.027344
227.066666,436.799988,121.599998,33.027344
223.866669,434.533356,120.666664,33.027344
226.399994,439.466675,128.666672,33.027344
220.533325,441.866699,120.266663,33.027344
229.199997,440.533325,115.466675,33.027344
222.266678,440.533325,120.933334,33.027344
225.200012,440.133331,112.133331,33.027344
220.266663,437.733337,119.599998,33.027344
224.266663,441.199982,121.73333,33.027344
230.133347,440.400024,121.599998,33.027344
221.733337,434.133331,121.066666,33.027344
224.266663,439.733307,120.800003,33.023438
221.600006,436.133362,121.199997,33.027344
228.266663,444.399994,121.866669,33.027344
218.0,437.599976,119.199997,33.027344
225.200012,440.800018,121.466667,33.027344
218.0,437.333344,124.0,33.027344
224.266663,438.666656,124.799995,33.023438
221.866669,441.866699,120.800003,33.023438
227.199997,439.866669,115.866669,33.027344
224.400009,437.599976,120.666664,33.027344
222.266678,438.266663,115.466675,33.027344
222.933334,439.333344,121.199997,33.027344
223.199997,440.266693,121.333328,33.027344
218.0,434.799988,120.0,33.023438
225.466675,439.466675,120.800003,33.027344
215.200012,437.200012,120.666664,33.027344
229.466675,441.06665,112.799995,33.023438
217.46666,437.866669,120.666664,33.027344
225.599991,444.533356,121.199997,33.023438
219.599991,437.466675,120.0,33.023438
226.53334,440.93335,122.0,33.027344
218.933334,434.799988,118.933334,33.023438
220.800003,438.800018,120.800003,33.023438
221.466675,438.399994,113.866661,33.027344
234.533325,440.800018,122.533333,33.027344
217.066666,434.533356,118.800003,33.023438
217.199997,437.866669,120.666664,33.023438
222.399994,441.333344,111.333328,33.023438
220.266663,438.399994,120.533333,33.027344
218.133331,434.0,120.533333,33.023438
223.866669,437.733337,120.666664,33.027344
224.0,444.399994,120.933334,33.023438
226.133331,439.599976,114.799995,33.027344
216.666656,438.533325,120.533333,33.023438
219.199997,437.06665,119.333336,33.027344
228.266663,437.200012,122.0,33.023438
220.400009,437.06665,120.0,33.027344
229.199997,442.533325,109.733337,33.023438
224.400009,438.800018,120.666664,33.023438
228.399994,433.466675,122.266663,33.023438
218.266663,437.599976,114.799995,33.023438
233.600006,440.266693,121.466667,33.023438
219.333328,439.866669,108.133331,33.023438
230.133347,441.06665,126.933334,33.023438
217.866669,441.06665,120.400002,33.023438
228.399994,440.533325,116.133339,33.023438
215.066666,439.333344,120.400002,33.019531
229.199997,434.799988,120.933334,33.023438
219.199997,437.599976,122.933334,33.023438
231.466675,440.400024,120.933334,33.019531
217.733322,438.533325,109.733337,33.023438
223.866669,440.266693,121.73333,33.023438
217.866669,432.533325,119.866669,33.023438
226.933319,440.666656,125.066673,33.023438
218.666672,440.93335,120.400002,33.023438
229.333328,440.666656,116.0,33.023438
225.466675,437.599976,121.066666,33.023438
227.733322,440.133331,115.600006,33.023438
222.0,444.799988,120.533333,33.023438
228.0,440.266693,116.53334,33.023438
216.0,437.599976,120.0,33.023438
229.466675,438.266663,122.399994,33.023438
220.800003,437.866669,120.533333,33.023438
223.600006,442.666656,120.666664,33.023438
223.46666,438.266663,121.599998,33.023438
216.666656,438.533325,120.266663,33.023438
220.0,437.733337,124.0,33.023438
226.666656,443.600006,121.599998,33.019531
223.333344,438.666656,114.933327,33.019531
226.800003,438.666656,120.0,33.019531
218.0,437.200012,124.133331,33.015625
225.733337,440.93335,121.199997,33.019531
217.46666,437.333344,125.333336,33.019531
218.666672,440.666656,121.599998,33.019531
221.200012,438.800018,120.266663,33.019531
226.933319,441.866699,121.066666,33.023438
217.333344,437.200012,120.0,33.019531
228.133331,442.0,111.333328,33.019531
225.200012,441.466675,120.933334,33.023438
223.066681,439.199982,116.53334,33.023438
220.800003,438.266663,120.133331,33.019531
225.733337,440.800018,122.533333,33.023438
221.733337,439.06665,114.399994,33.023438
232.266678,439.733307,121.333328,33.019531
219.733337,435.600006,115.066673,33.019531
232.800003,440.800018,122.666664,33.019531
225.066666,439.599976,114.799995,33.023438
228.933334,439.466675,121.466667,33.023438
220.533325,438.0,113.199997,33.023438
234.266663,440.400024,121.333328,33.019531
226.666656,440.266693,122.266663,33.019531
227.866669,439.333344,121.333328,33.019531
222.0,438.399994,117.333336,33.023438
229.466675,440.266693,121.73333,33.019531
226.133331,440.400024,113.333328,33.019531
227.866669,438.800018,121.73333,33.019531
222.0,436.533325,120.400002,33.019531
227.866669,440.133331,121.066666,33.019531
229.333328,439.06665,115.733337,33.019531
216.0,440.266693,120.400002,33.019531
228.533325,440.266693,116.26667,33.019531
229.466675,438.800018,121.866669,33.019531
228.533325,440.400024,120.0,33.015625
218.266663,434.799988,120.400002,33.019531
230.0,440.93335,120.800003,33.019531
217.600006,437.06665,115.066673,33.019531
219.06665,437.466675,124.266663,33.019531
228.266663,440.666656,121.199997,33.015625
223.600006,440.133331,111.333328,33.019531
222.266678,438.533325,120.400002,33.015625
218.933334,436.933319,113.73333,33.019531
218.666672,439.06665,119.733337,33.015625
228.533325,440.400024,115.733337,33.019531
217.733322,444.0,119.599998,33.019531
228.399994,436.399994,121.73333,33.019531
214.133331,437.333344,120.133331,33.015625
229.733337,440.666656,125.333336,33.015625
220.0,442.666656,119.333336,33.015625
225.599991,445.333313,121.066666,33.019531
224.266663,438.800018,120.800003,33.015625
227.333344,440.400024,115.466675,33.019531
218.399994,437.733337,115.333336,33.019531
224.666672,439.733307,116.800003,33.015625
221.066666,440.0,121.466667,33.015625
218.799988,437.200012,121.866669,33.019531
230.266663,444.933319,122.133331,33.015625
224.133331,439.733307,120.533333,33.019531
226.666656,439.866669,121.599998,33.015625
217.199997,435.066681,120.133331,33.015625
226.133331,442.799988,121.866669,33.015625
226.53334,447.06665,120.800003,33.015625
216.666656,438.533325,121.333328,33.019531
223.733337,439.466675,126.133339,33.015625
226.666656,438.800018,128.933334,33.015625
229.733337,432.533325,124.399994,33.019531
223.733337,434.266663,123.199997,33.015625
228.133331,435.600006,116.666672,33.015625
218.533325,432.400024,118.400002,33.015625
226.666656,437.06665,114.399994,33.015625
220.533325,439.466675,122.799995,33.015625
229.599991,436.666687,121.333328,33.015625
217.866669,432.93335,118.0,33.015625
223.066681,434.399994,117.733337,33.015625
224.799988,432.400024,123.46666,33.015625
227.066666,437.06665,118.400002,33.015625
220.266663,433.066681,127.200005,33.015625
217.733322,434.533356,114.933327,33.015625
227.733322,434.666687,123.46666,33.019531
227.46666,434.666687,123.46666,33.015625
220.93335,434.133331,120.133331,33.015625
221.466675,438.800018,123.46666,33.015625
223.46666,434.533356,116.666672,33.015625
227.46666,438.0,123.599998,33.015625
218.399994,433.466675,117.866669,33.015625
224.799988,435.066681,127.066666,33.015625
220.800003,435.333313,111.866669,33.015625
222.399994,434.399994,123.73333,33.011719
217.199997,433.200012,117.066666,33.015625
221.200012,434.0,122.933334,33.015625
228.533325,436.133362,117.333336,33.015625
221.333328,425.866669,123.46666,33.015625
221.200012,435.600006,117.600006,33.015625
213.600006,434.0,121.73333,33.015625
230.533325,437.599976,119.866669,33.015625
217.066666,433.466675,116.933334,33.011719
222.933334,437.200012,118.533333,33.011719
219.599991,433.733337,121.333328,33.015625
228.399994,436.933319,125.333336,33.015625
217.333344,436.0,120.0,33.015625
227.199997,437.200012,122.133331,33.015625
219.599991,433.333313,120.133331,33.015625
227.333344,436.0,118.933334,33.015625
217.866669,438.93335,118.133331,33.015625
229.199997,435.200012,129.333328,33.011719
221.866669,434.266663,111.599998,33.015625
224.266663,435.733337,125.600006,33.011719
218.799988,432.93335,116.53334,33.011719
230.533325,435.200012,121.333328,33.015625
227.333344,436.533325,117.866669,33.011719
219.866653,432.266663,126.800003,33.011719
226.0,435.600006,113.46666,33.011719
218.0,426.266663,125.200005,33.011719
223.333344,437.866669,118.666672,33.015625
223.866669,432.799988,123.066666,33.015625
227.733322,434.533356,118.800003,33.011719
221.733337,433.600006,123.866661,33.011719
220.666672,431.199982,119.466667,33.011719
225.733337,439.466675,122.133331,33.011719
225.333328,436.933319,121.199997,33.011719
219.199997,437.200012,121.73333,33.011719
217.46666,434.799988,122.533333,33.011719
223.46666,434.399994,123.599998,33.011719
223.333344,435.600006,116.800003,33.011719
213.199997,433.866638,119.866669,33.011719
223.333344,433.333313,123.73333,33.015625
226.399994,435.466644,118.0,33.011719
223.066681,428.533325,124.666664,33.015625
223.333344,441.333344,119.599998,33.011719
215.866669,432.799988,122.666664,33.015625
227.066666,436.266663,121.866669,33.011719
221.466675,441.06665,124.266663,33.011719
220.93335,434.0,122.133331,33.011719
211.866669,442.266663,122.133331,33.015625
224.666672,437.333344,119.466667,33.015625
214.400009,428.800018,122.666664,33.011719
214.933334,432.266663,114.799995,33.015625
208.799988,430.133331,116.53334,33.015625
229.733337,437.466675,123.199997,33.011719
217.199997,428.533325,121.333328,33.011719
220.133347,436.133362,120.133331,33.011719
218.799988,430.533325,118.933334,33.011719
218.666672,434.133331,123.066666,33.011719
219.599991,434.0,126.800003,33.015625
238.0,437.200012,122.666664,33.011719
222.666656,432.666656,118.533333,33.015625
217.866669,429.466675,119.733337,33.011719
227.066666,428.266663,117.333336,33.011719
216.133331,433.466675,120.266663,33.011719
226.0,436.133362,118.133331,33.015625
211.600006,434.666687,122.399994,33.015625
222.53334,448.666656,120.933334,33.015625
211.466675,432.266663,116.400002,33.015625
213.600006,435.200012,118.0,33.015625
220.666672,434.133331,122.266663,33.015625
227.733322,436.799988,118.133331,33.011719
217.333344,433.066681,121.466667,33.015625
215.066666,433.200012,119.333336,33.015625
222.266678,435.600006,122.533333,33.015625
227.46666,427.599976,119.199997,33.015625
218.933334,434.933319,121.73333,33.011719
224.799988,429.733307,120.666664,33.015625
216.53334,432.799988,119.599998,33.015625
214.933334,430.666656,119.333336,33.015625
215.200012,432.133331,121.73333,33.015625
222.800003,432.93335,120.933334,33.015625
228.266663,436.266663,121.199997,33.015625
222.133331,434.266663,122.399994,33.019531
224.133331,435.600006,126.933334,33.015625
219.333328,433.066681,123.866661,33.015625
230.93335,436.399994,122.266663,33.015625
214.666672,432.533325,120.400002,33.019531
229.06665,436.0,119.733337,33.015625
220.133347,435.333313,121.199997,33.019531
230.133347,436.399994,120.533333,33.019531
210.800003,446.0,120.933334,33.019531
219.466675,429.199982,119.066666,33.019531
213.866669,431.866699,110.400002,33.015625
218.933334,431.600006,121.866669,33.019531
214.666672,432.266663,123.599998,33.019531
221.333328,433.066681,122.133331,33.019531
221.200012,436.533325,121.599998,33.019531
222.53334,429.199982,121.199997,33.019531
222.53334,435.600006,126.133339,33.019531
228.666672,435.066681,122.933334,33.019531
228.399994,435.600006,119.733337,33.019531
224.933334,434.666687,120.533333,33.019531
234.400009,434.266663,120.133331,33.019531
227.066666,435.333313,121.466667,33.019531
230.666672,435.466644,119.866669,33.019531
228.399994,433.466675,119.866669,33.019531
228.133331,435.333313,119.199997,33.019531
223.600006,435.600006,121.73333,33.023438
229.599991,433.866638,129.866669,33.019531
218.0,433.600006,121.466667,33.019531
227.866669,433.066681,121.199997,33.023438
221.866669,430.93335,118.800003,33.023438
218.533325,431.333344,123.866661,33.023438
211.466675,431.06665,123.066666,33.023438
222.266678,428.93335,122.133331,33.023438
213.199997,432.133331,105.200005,33.023438
218.666672,430.533325,114.0,33.023438
212.266678,429.06665,99.733337,33.027344
222.800003,431.199982,103.866661,33.023438
211.600006,430.133331,120.133331,33.027344
211.600006,428.800018,120.0,33.027344
228.0,433.200012,117.066666,33.027344
216.133331,433.466675,117.333336,33.027344
221.200012,435.600006,116.133339,33.027344
216.666656,434.266663,115.466675,33.027344
229.199997,432.666656,116.26667,33.027344
217.333344,434.0,119.466667,33.03125
220.93335,431.866699,115.466675,33.027344
215.733337,436.799988,118.933334,33.03125
226.666656,435.066681,119.733337,33.03125
217.733322,439.199982,118.666672,33.03125
219.199997,434.666687,116.666672,33.03125
215.466675,436.399994,117.466667,33.03125
224.799988,437.06665,121.199997,33.027344
220.0,435.066681,118.0,33.03125
221.466675,433.466675,118.800003,33.03125
215.200012,432.266663,115.866669,33.03125
225.466675,436.666687,116.666672,33.03125
216.0,433.333313,117.866669,33.035156
224.266663,434.533356,117.333336,33.03125
218.666672,432.266663,116.666672,33.035156
226.133331,438.93335,120.266663,33.035156
215.733337,433.066681,116.666672,33.03125
226.266663,436.799988,117.333336,33.035156
223.866669,433.733337,119.066666,33.035156
220.666672,438.800018,120.533333,33.035156
217.333344,431.199982,118.800003,33.035156
224.133331,439.599976,120.266663,33.035156
225.066666,434.666687,119.733337,33.035156
221.466675,436.799988,122.0,33.039062
219.599991,433.333313,118.133331,33.039062
226.266663,438.666656,122.0,33.039062
226.133331,434.799988,120.666664,33.039062
217.066666,435.333313,120.800003,33.039062
225.200012,434.133331,120.533333,33.039062
226.0,436.933319,122.533333,33.039062
226.666656,436.533325,119.733337,33.039062
217.066666,431.866699,120.666664,33.042969
225.733337,435.066681,117.333336,33.039062
220.400009,435.333313,121.599998,33.039062
224.799988,440.93335,120.800003,33.042969
214.666672,431.333344,119.333336,33.042969
225.066666,440.133331,118.26667,33.042969
216.399994,432.400024,117.466667,33.042969
222.53334,439.199982,118.800003,33.046875
216.666656,430.533325,118.26667,33.042969
226.133331,441.600006,122.399994,33.046875
215.333328,431.866699,118.933334,33.046875
218.799988,437.866669,122.799995,33.046875
220.266663,433.200012,117.866669,33.046875
222.666656,439.06665,122.533333,33.046875
222.933334,432.0,120.0,33.046875
217.333344,434.666687,121.866669,33.046875
225.333328,435.733337,118.666672,33.050781
216.399994,435.866669,122.266663,33.046875
222.933334,433.866638,118.800003,33.050781
219.06665,432.0,122.133331,33.050781
223.46666,434.399994,118.400002,33.046875
216.666656,433.466675,121.866669,33.050781
224.933334,435.866669,119.466667,33.050781
220.133347,431.199982,118.26667,33.050781
225.866669,440.266693,119.599998,33.050781
215.866669,433.600006,118.933334,33.050781
227.46666,438.666656,117.733337,33.050781
219.199997,431.466675,116.26667,33.054688
224.133331,442.266663,118.933334,33.054688
214.266663,431.466675,116.26667,33.054688
226.933319,441.866699,119.466667,33.054688
220.533325,433.200012,115.600006,33.054688
223.46666,438.93335,121.73333,33.054688
217.600006,431.06665,115.466675,33.054688
229.466675,439.199982,121.599998,33.054688
226.666656,436.266663,117.066666,33.058594
217.600006,434.799988,117.466667,33.058594
226.133331,434.0,118.666672,33.058594
216.0,438.399994,119.333336,33.058594
217.333344,434.0,115.733337,33.0625
224.0,437.866669,121.066666,33.058594
223.866669,434.666687,118.0,33.0625
219.333328,435.866669,120.800003,33.0625
216.53334,433.466675,113.46666,33.0625
225.333328,436.0,121.466667,33.0625
221.200012,436.0,113.599998,33.0625
223.066681,435.600006,121.466667,33.066406
217.066666,435.333313,115.866669,33.0625
229.466675,432.666656,122.133331,33.066406
213.733337,436.133362,115.866669,33.066406
226.399994,435.066681,119.733337,33.066406
217.866669,438.93335,119.199997,33.070312
226.399994,433.466675,120.800003,33.070312
214.933334,439.06665,119.866669,33.070312
225.866669,432.533325,119.866669,33.070312
217.866669,434.266663,122.799995,33.070312
227.733322,433.733337,118.26667,33.070312
219.466675,435.866669,123.599998,33.070312
223.333344,432.133331,117.066666,33.070312
217.333344,431.466675,121.599998,33.074219
226.399994,437.466675,116.933334,33.074219
216.666656,433.600006,122.799995,33.074219
224.0,435.866669,116.133339,33.074219
219.06665,430.93335,121.333328,33.074219
226.0,440.266693,118.133331,33.074219
217.733322,431.199982,122.799995,33.074219
224.799988,439.466675,117.066666,33.074219
220.133347,430.266693,118.933334,33.078125
226.133331,442.0,121.73333,33.078125
215.733337,428.93335,116.0,33.078125
226.800003,440.666656,124.0,33.078125
219.333328,432.93335,116.0,33.078125
226.933319,438.133301,125.600006,33.082031
217.46666,431.199982,116.800003,33.082031
227.199997,440.666656,125.466675,33.078125
223.866669,435.866669,115.466675,33.082031
225.333328,434.933319,125.200005,33.078125
216.0,434.799988,114.399994,33.082031
229.199997,436.266663,125.733337,33.082031
225.599991,440.800018,117.733337,33.085938
217.733322,432.133331,122.533333,33.085938
223.600006,437.466675,116.0,33.085938
224.799988,433.733337,124.133331,33.085938
227.333344,442.266663,122.0,33.085938
218.0,429.733307,120.266663,33.085938
223.199997,441.600006,119.333336,33.085938
222.0,432.0,119.466667,33.085938
228.533325,440.266693,125.466675,33.089844
218.533325,432.0,115.600006,33.089844
224.666672,437.866669,125.200005,33.089844
224.0,432.666656,116.400002,33.089844
229.599991,435.066681,125.733337,33.089844
217.733322,433.200012,114.933327,33.09375
224.933334,434.799988,124.933327,33.09375
221.466675,437.200012,115.466675,33.09375
227.600006,432.799988,123.199997,33.09375
214.133331,438.133301,115.600006,33.09375
228.133331,433.866638,122.933334,33.09375
219.466675,439.466675,116.133339,33.097656
225.733337,432.0,120.266663,33.09375
217.199997,439.599976,118.933334,33.09375
226.0,432.93335,122.266663,33.09375
215.066666,437.866669,114.799995,33.097656
218.0,429.866669,118.400002,33.097656
224.400009,440.400024,121.199997,33.097656
222.266678,431.600006,119.333336,33.101562
215.866669,438.266663,120.800003,33.101562
217.199997,432.400024,114.799995,33.101562
222.53334,436.666687,123.199997,33.105469
224.0,435.333313,114.666664,33.105469
216.933319,434.666687,124.266663,33.105469
218.933334,439.199982,116.0,33.105469
220.133347,429.466675,120.0,33.105469
227.199997,440.666656,114.666664,33.105469
216.666656,430.266693,120.933334,33.109375
223.866669,441.733337,121.73333,33.109375
217.066666,429.466675,116.133339,33.109375
228.666672,441.600006,124.0,33.105469
217.733322,429.199982,118.400002,33.109375
218.933334,440.0,121.73333,33.109375
224.799988,432.93335,117.733337,33.109375
216.800003,439.866669,119.733337,33.109375
224.0,430.93335,119.466667,33.113281
219.866653,437.599976,123.73333,33.113281
227.733322,433.466675,114.533325,33.113281
217.600006,438.266663,121.73333,33.113281
226.133331,433.066681,117.066666,33.113281
224.0,435.866669,125.600006,33.117188
221.200012,436.666687,112.399994,33.117188
219.866653,433.333313,124.533325,33.117188
225.333328,436.933319,114.533325,33.117188
223.333344,431.199982,122.266663,33.117188
225.200012,441.199982,115.600006,33.117188
219.733337,429.333344,122.933334,33.121094
227.333344,441.466675,117.600006,33.121094
219.199997,429.733307,116.133339,33.121094
227.46666,442.93335,121.599998,33.125
216.0,428.800018,114.399994,33.125
227.333344,441.733337,123.066666,33.125
220.666672,433.066681,113.599998,33.125
228.0,439.06665,126.0,33.125
216.133331,432.0,113.066666,33.128906
229.06665,438.93335,126.53334,33.128906
218.133331,438.133301,114.0,33.128906
226.666656,434.266663,125.866669,33.128906
214.0,437.200012,112.266663,33.128906
228.666672,433.866638,126.53334,33.132812
219.466675,438.266663,120.133331,33.132812
227.199997,429.599976,117.600006,33.132812
215.333328,439.333344,119.333336,33.136719
227.600006,430.266693,121.73333,33.136719
224.666672,440.533325,123.46666,33.136719
221.466675,431.06665,116.26667,33.136719
220.266663,440.0,121.466667,33.136719
224.933334,431.333344,118.800003,33.136719
229.06665,438.133301,127.066666,33.136719
217.333344,431.866699,112.933334,33.140625
225.599991,439.866669,126.400002,33.140625
220.0,431.600006,115.866669,33.140625
229.466675,433.733337,126.53334,33.140625
213.333344,435.733337,111.199997,33.144531
226.133331,434.666687,127.200005,33.144531
218.666672,436.133362,113.73333,33.148438
225.466675,432.266663,126.0,33.148438
216.399994,437.599976,113.866661,33.148438
229.199997,432.400024,126.53334,33.148438
216.933319,438.0,114.133331,33.148438
225.466675,430.133331,119.733337,33.152344
216.933319,438.800018,119.066666,33.152344
229.06665,430.666656,117.866669,33.152344
216.933319,440.266693,119.066666,33.152344
218.0,430.533325,115.866669,33.15625
224.400009,440.800018,121.866669,33.15625
220.533325,428.800018,116.26667,33.15625
216.399994,438.399994,118.800003,33.15625
213.866669,431.333344,112.533333,33.15625
230.400009,440.93335,124.399994,33.15625
214.533325,428.93335,114.533325,33.15625
224.0,439.466675,121.866669,33.15625
216.0,437.866669,113.46666,33.160156
225.733337,432.799988,127.466667,33.160156
217.600006,437.333344,113.73333,33.160156
223.733337,430.666656,127.066666,33.164062
213.733337,438.133301,113.866661,33.164062
226.0,428.533325,122.133331,33.164062
217.46666,438.666656,113.73333,33.164062
221.200012,427.733337,120.533333,33.167969
218.799988,436.933319,117.866669,33.167969
226.666656,429.733307,119.466667,33.167969
216.266663,438.800018,120.666664,33.167969
221.200012,430.133331,114.799995,33.167969
215.866669,434.799988,126.53334,33.175781
224.0,436.933319,112.933334,33.171875
220.266663,435.066681,128.133331,33.171875
218.666672,433.733337,108.800003,33.175781
217.199997,428.93335,122.799995,33.175781
225.466675,440.266693,113.866661,33.175781
219.866653,431.733337,127.600006,33.175781
220.800003,438.93335,112.0,33.179688
215.333328,426.533325,120.266663,33.179688
225.200012,441.466675,120.666664,33.179688
217.46666,426.933319,123.199997,33.179688
221.466675,442.0,116.666672,33.179688
218.399994,427.599976,114.799995,33.179688
225.733337,440.266693,121.599998,33.183594
214.666672,426.799988,114.933327,33.183594
225.733337,442.400024,121.866669,33.183594
221.333328,433.333313,113.066666,33.1875
223.199997,438.533325,127.466667,33.191406
217.46666,429.466675,112.133331,33.1875
223.199997,442.0,122.666664,33.191406
225.066666,433.866638,112.799995,33.191406
216.266663,438.666656,124.533325,33.191406
225.066666,432.266663,114.666664,33.191406
215.733337,436.533325,117.600006,33.195312
214.799988,430.533325,112.799995,33.195312
224.666672,438.266663,126.400002,33.195312
221.466675,432.266663,111.466667,33.199219
221.200012,437.333344,125.466675,33.199219
216.266663,438.93335,115.866669,33.199219
228.133331,437.06665,129.333328,33.203125
218.666672,436.799988,113.199997,33.203125
223.600006,435.866669,128.800003,33.203125
215.066666,438.93335,113.866661,33.207031
229.333328,432.400024,128.933334,33.207031
216.399994,437.733337,113.73333,33.207031
225.066666,430.400024,127.066666,33.207031
214.799988,440.800018,116.0,33.207031
228.133331,432.0,122.399994,33.210938
213.866669,440.266693,113.199997,33.210938
228.799988,432.93335,128.666672,33.210938
223.199997,438.666656,120.933334,33.214844
223.733337,429.199982,117.866669,33.214844
216.266663,438.800018,120.666664,33.21875
226.800003,430.533325,118.533333,33.21875
222.933334,435.866669,128.133331,33.214844
223.199997,436.399994,112.799995,33.222656
219.06665,436.133362,123.866661,33.222656
223.733337,435.333313,112.666664,33.222656
224.0,430.133331,127.866669,33.226562
220.0,439.333344,113.199997,33.226562
221.333328,432.666656,126.0,33.226562
225.333328,439.333344,110.533333,33.226562
226.399994,430.266693,124.933327,33.226562
220.800003,440.533325,116.53334,33.230469
219.599991,428.399994,124.666664,33.230469
227.199997,440.800018,116.400002,33.230469
223.600006,431.06665,115.333336,33.230469
223.866669,441.06665,122.266663,33.234375
217.46666,428.0,116.0,33.234375
229.466675,442.133331,123.599998,33.234375
223.866669,436.0,112.133331,33.238281
223.199997,436.799988,127.066666,33.242188
217.066666,433.066681,111.333328,33.242188
228.533325,438.800018,129.199997,33.246094
223.066681,441.199982,111.333328,33.246094
220.93335,431.733337,128.933334,33.246094
221.866669,436.533325,111.333328,33.246094
219.199997,434.933319,128.266663,33.246094
217.199997,436.933319,112.0,33.25
221.200012,431.466675,128.0,33.25
223.46666,438.266663,113.866661,33.25
219.333328,433.333313,128.0,33.253906
214.533325,438.533325,113.866661,33.257812
226.133331,429.466675,127.333336,33.257812
221.600006,441.466675,111.066666,33.257812
218.799988,427.333344,126.400002,33.261719
215.733337,438.666656,117.466667,33.257812
222.266678,428.533325,117.333336,33.261719
223.733337,440.266693,120.266663,33.261719
221.200012,427.200012,121.333328,33.261719
216.666656,437.466675,122.0,33.269531
226.266663,429.866669,115.066673,33.269531
215.599991,439.06665,120.533333,33.269531
226.53334,429.466675,121.199997,33.269531
220.800003,437.333344,126.933334,33.269531
223.866669,433.866638,112.666664,33.273438
217.600006,436.266663,126.666672,33.273438
225.200012,432.799988,115.200005,33.277344
227.866669,436.666687,127.600006,33.28125
220.0,436.933319,111.73333,33.28125
218.266663,432.400024,128.53334,33.28125
223.066681,436.666687,112.266663,33.28125
227.199997,431.733337,127.333336,33.285156
213.866669,437.599976,111.866669,33.285156
223.46666,431.333344,126.933334,33.285156
219.733337,438.533325,112.399994,33.285156
227.733322,430.533325,127.066666,33.289062
214.799988,438.399994,112.0,33.292969
229.06665,430.266693,125.333336,33.292969
215.333328,438.399994,112.399994,33.292969
223.733337,428.533325,120.933334,33.296875
216.800003,438.800018,116.400002,33.296875
228.933334,429.06665,123.46666,33.296875
214.133331,439.866669,117.466667,33.300781
221.466675,432.93335,113.333328,33.304688
217.733322,438.399994,126.0,33.304688
225.333328,433.466675,113.46666,33.304688
220.400009,438.0,125.333336,33.308594
220.666672,438.266663,112.0,33.308594
219.599991,433.333313,128.53334,33.308594
225.466675,438.266663,112.133331,33.3125
217.066666,435.333313,127.333336,33.316406
213.333344,436.533325,110.0,33.316406
228.0,436.933319,130.0,33.316406
212.666656,432.266663,109.733337,33.316406
228.933334,439.599976,126.800003,33.316406
224.799988,436.133362,110.933334,33.320312
220.533325,436.133362,128.800003,33.324219
218.666672,435.066681,110.266663,33.324219
222.399994,439.466675,126.53334,33.328125
224.799988,439.199982,112.666664,33.328125
217.333344,433.733337,127.333336,33.328125
226.666656,437.866669,110.533333,33.328125
218.933334,435.200012,129.066666,33.332031
221.600006,441.199982,114.533325,33.335938
218.266663,429.199982,125.866669,33.339844
223.333344,441.06665,115.200005,33.339844
217.46666,431.06665,127.600006,33.34375
222.133331,439.733307,118.933334,33.347656
218.266663,428.0,120.0,33.347656
226.0,441.466675,118.533333,33.347656
218.266663,427.866669,119.066666,33.347656
222.933334,438.133301,126.133339,33.351562
216.933319,429.866669,112.533333,33.355469
227.333344,440.93335,126.53334,33.355469
214.266663,430.666656,112.666664,33.355469
227.866669,433.466675,129.600006,33.355469
213.46666,437.599976,111.599998,33.363281
230.0,434.533356,130.0,33.363281
215.466675,438.0,111.866669,33.363281
224.666672,429.733307,123.333328,33.367188
215.066666,437.733337,113.066666,33.367188
227.46666,430.666656,126.800003,33.367188
214.666672,438.399994,114.133331,33.371094
220.93335,429.333344,118.0,33.371094
220.93335,438.266663,120.266663,33.375
226.133331,430.0,118.26667,33.378906
216.666656,438.666656,117.733337,33.378906
216.53334,428.93335,114.399994,33.378906
226.399994,441.466675,120.400002,33.382812
218.799988,428.0,117.200005,33.382812
225.333328,440.93335,118.800003,33.386719
218.933334,431.600006,113.066666,33.386719
225.200012,439.866669,124.399994,33.390625
219.466675,429.333344,116.53334,33.390625
223.866669,441.466675,120.266663,33.390625
225.733337,433.066681,115.066673,33.394531
214.933334,436.399994,121.866669,33.394531
227.199997,430.800018,116.26667,33.398438
215.200012,438.93335,118.800003,33.398438
220.400009,433.866638,113.066666,33.410156
219.06665,436.799988,125.066673,33.410156
226.266663,434.133331,114.533325,33.414062
216.53334,438.800018,120.933334,33.414062
215.866669,434.399994,110.533333,33.414062
228.399994,439.599976,126.400002,33.417969
219.199997,433.333313,112.666664,33.417969
221.733337,437.466675,125.333336,33.417969
214.266663,437.466675,111.199997,33.425781
230.133347,436.533325,129.600006,33.425781
212.666656,434.0,110.666664,33.433594
228.266663,438.533325,127.466667,33.429688
222.53334,438.666656,111.73333,33.429688
224.933334,435.200012,128.800003,33.433594
216.666656,435.733337,110.933334,33.433594
228.266663,435.866669,130.0,33.4375
224.933334,440.266693,114.133331,33.441406
220.533325,431.466675,127.066666,33.441406
224.400009,439.06665,112.666664,33.441406
220.800003,433.200012,126.666672,33.445312
224.666672,440.266693,113.46666,33.449219
220.400009,428.666656,121.066666,33.449219
224.266663,440.133331,113.599998,33.453125
217.733322,430.93335,123.73333,33.453125
220.93335,439.199982,119.066666,33.457031
221.066666,429.333344,120.400002,33.457031
222.933334,440.0,116.133339,33.460938
217.866669,428.133301,120.133331,33.460938
217.866669,438.399994,120.533333,33.464844
221.866669,432.133331,116.26667,33.464844
222.133331,440.133331,120.266663,33.46875
221.200012,429.599976,118.400002,33.46875
217.066666,434.799988,123.46666,33.472656
226.0,434.399994,113.866661,33.476562
220.133347,437.06665,124.799995,33.480469
222.0,432.133331,113.066666,33.480469
218.933334,433.733337,127.066666,33.480469
223.199997,435.200012,113.73333,33.484375
217.333344,435.733337,123.866661,33.488281
225.333328,433.333313,117.200005,33.492188
228.933334,436.266663,128.399994,33.492188
219.466675,436.0,112.133331,33.492188
220.666672,432.400024,128.133331,33.496094
226.399994,437.599976,114.266663,33.496094
226.399994,433.333313,126.26667,33.503906
216.133331,436.0,113.73333,33.507812
219.466675,430.133331,117.866669,33.507812
221.733337,438.133301,121.333328,33.511719
223.333344,440.666656,116.400002,33.515625
216.800003,429.333344,123.73333,33.515625
227.066666,439.733307,115.333336,33.515625
220.400009,431.199982,124.666664,33.515625
225.599991,440.266693,120.800003,33.523438
216.53334,429.733307,118.533333,33.535156
225.200012,441.600006,119.733337,33.535156
217.46666,430.266693,123.066666,33.535156
216.800003,437.866669,121.333328,33.535156
222.266678,432.133331,117.866669,33.53125
225.200012,439.599976,121.599998,33.539062
217.866669,430.93335,119.333336,33.542969
218.266663,434.533356,124.933327,33.542969
226.0,433.200012,116.26667,33.546875
217.333344,436.399994,120.933334,33.546875
226.933319,433.333313,119.599998,33.550781
224.0,437.333344,124.133331,33.554688
222.399994,433.600006,116.666672,33.554688
218.799988,435.066681,121.466667,33.558594
226.666656,434.133331,117.733337,33.5625
228.533325,436.799988,127.333336,33.566406
216.399994,434.933319,113.333328,33.5625
223.733337,434.799988,126.666672,33.566406
220.400009,434.133331,115.200005,33.570312
228.133331,435.333313,128.266663,33.570312
213.733337,434.933319,112.666664,33.574219
226.266663,434.799988,126.800003,33.574219
216.266663,434.533356,112.666664,33.574219
224.666672,433.200012,118.533333,33.578125
218.0,437.866669,119.333336,33.578125
220.400009,431.333344,120.266663,33.582031
223.066681,439.599976,119.333336,33.585938
226.53334,434.533356,118.26667,33.59375
216.53334,436.133362,119.599998,33.589844
226.53334,434.533356,122.533333,33.59375
216.0,436.399994,117.866669,33.59375
217.733322,432.0,117.466667,33.597656
216.399994,433.866638,123.066666,33.597656
227.199997,435.066681,114.666664,33.597656
215.066666,435.200012,123.066666,33.605469
216.266663,434.533356,114.266663,33.605469
220.93335,433.466675,125.333336,33.613281
224.666672,437.466675,115.200005,33.613281
216.133331,432.799988,124.799995,33.613281
216.266663,436.0,114.533325,33.617188
227.600006,435.466644,125.466675,33.621094
218.399994,435.866669,114.266663,33.625
221.200012,433.333313,122.933334,33.625
214.0,436.266663,115.333336,33.625
228.799988,435.333313,125.733337,33.628906
214.533325,434.666687,113.73333,33.632812
227.46666,434.533356,125.600006,33.632812
224.0,438.800018,116.400002,33.644531
221.600006,434.0,123.73333,33.648438
218.799988,436.133362,116.0,33.648438
226.53334,435.600006,124.0,33.648438
223.600006,437.733337,121.333328,33.652344
218.266663,433.466675,120.666664,33.660156
224.666672,438.266663,118.133331,33.664062
222.933334,434.133331,120.533333,33.664062
225.333328,437.200012,122.666664,33.664062
214.799988,432.266663,116.0,33.667969
229.199997,437.333344,118.533333,33.667969
216.666656,432.666656,118.933334,33.671875
224.266663,434.666687,122.799995,33.675781
215.866669,432.533325,114.799995,33.675781
228.266663,434.933319,123.199997,33.679688
218.0,433.733337,114.799995,33.679688
227.333344,434.533356,122.799995,33.683594
215.333328,433.066681,111.066666,33.6875
224.799988,435.866669,125.333336,33.6875
215.066666,431.333344,115.466675,33.691406
216.133331,432.266663,123.46666,33.695312
223.600006,435.066681,115.600006,33.695312
223.600006,433.066681,124.666664,33.699219
219.199997,433.333313,114.933327,33.699219
216.800003,431.06665,120.666664,33.703125
222.666656,437.06665,118.400002,33.707031
220.533325,433.866638,121.599998,33.710938
216.0,434.933319,117.066666,33.710938
216.266663,433.866638,117.866669,33.714844
223.333344,435.600006,123.199997,33.71875
220.533325,435.733337,119.199997,33.71875
218.666672,433.600006,120.800003,33.722656
215.866669,432.93335,115.733337,33.726562
226.133331,435.600006,123.599998,33.730469
214.533325,433.866638,117.066666,33.730469
225.200012,435.066681,123.066666,33.734375
216.666656,432.666656,116.133339,33.738281
224.933334,435.733337,122.799995,33.742188
215.733337,432.93335,115.333336,33.746094
226.666656,433.600006,123.333328,33.746094
220.266663,435.333313,116.400002,33.75
223.333344,435.066681,122.933334,33.75
217.46666,433.066681,116.53334,33.761719
224.400009,434.533356,124.0,33.769531
224.533325,436.666687,118.533333,33.777344
218.0,434.133331,122.666664,33.78125
222.53334,435.066681,117.066666,33.78125
220.533325,434.0,122.0,33.78125
225.466675,437.466675,120.533333,33.785156
216.133331,434.266663,120.400002,33.785156
226.399994,435.733337,120.0,33.789062
219.199997,434.666687,121.466667,33.789062
225.733337,435.866669,122.533333,33.792969
217.199997,433.466675,117.866669,33.796875
226.0,434.666687,119.733337,33.800781
218.266663,435.333313,120.0,33.808594
220.800003,433.333313,119.733337,33.8125
217.199997,432.400024,116.133339,33.816406
225.466675,434.266663,122.266663,33.820312
215.066666,431.733337,118.933334,33.820312
220.533325,434.133331,118.800003,33.824219
217.866669,432.0,115.466675,33.835938
224.400009,435.333313,121.466667,33.839844
216.53334,432.266663,117.600006,33.839844
215.733337,432.400024,120.0,33.839844
226.53334,435.066681,118.133331,33.839844
217.199997,434.266663,120.666664,33.84375
224.799988,434.933319,119.066666,33.847656
222.266678,436.133362,119.599998,33.851562
219.466675,434.0,120.533333,33.855469
222.0,437.200012,121.333328,33.863281
221.466675,434.0,117.733337,33.871094
215.333328,433.066681,117.733337,33.875
226.133331,436.933319,120.933334,33.875
217.066666,434.133331,119.733337,33.878906
226.266663,435.333313,119.066666,33.878906
219.333328,431.866699,120.533333,33.882812
225.200012,433.200012,119.599998,33.894531
215.733337,431.600006,118.0,33.894531
228.266663,435.466644,120.400002,33.894531
223.733337,436.799988,120.933334,33.898438
219.733337,434.533356,118.533333,33.898438
217.600006,433.600006,118.0,33.898438
225.466675,435.333313,120.266663,33.902344
227.066666,435.600006,119.333336,33.914062
217.199997,433.200012,120.266663,33.917969
221.333328,433.866638,118.666672,33.917969
222.53334,434.0,120.133331,33.921875
226.133331,434.533356,120.0,33.921875
214.266663,434.533356,119.599998,33.925781
224.533325,434.0,118.400002,33.925781
221.333328,435.466644,120.933334,33.929688
224.133331,434.266663,120.133331,33.933594
215.599991,435.200012,120.266663,33.941406
226.133331,434.399994,120.666664,33.945312
216.933319,435.600006,120.933334,33.949219
224.533325,433.600006,120.400002,33.949219
216.133331,432.133331,121.333328,33.957031
224.400009,433.600006,120.133331,33.957031
219.866653,433.733337,120.533333,33.960938
226.0,437.733337,120.933334,33.960938
215.599991,431.600006,118.133331,33.964844
224.799988,436.666687,119.199997,33.972656
220.266663,432.93335,118.666672,33.976562
227.066666,439.199982,122.133331,33.976562
214.133331,430.666656,118.26667,33.980469
226.53334,439.333344,120.800003,33.984375
216.53334,431.199982,118.666672,33.984375
227.733322,436.933319,122.533333,33.988281
216.933319,431.866699,117.866669,33.992188
222.666656,434.799988,121.466667,33.996094
224.0,433.866638,115.066673,33.996094
228.133331,434.666687,121.066666,34.0
217.199997,434.933319,118.133331,34.003906
226.666656,434.799988,121.599998,34.003906
220.133347,435.200012,116.53334,34.007812
225.200012,433.600006,120.666664,34.011719
216.399994,435.600006,114.933327,34.015625
226.133331,435.600006,117.466667,34.015625
214.0,435.333313,115.600006,34.019531
222.800003,432.0,117.600006,34.023438
217.733322,436.799988,119.199997,34.027344
226.0,432.799988,117.600006,34.03125
214.799988,436.933319,119.866669,34.035156
217.866669,430.800018,117.866669,34.035156
223.866669,438.399994,120.533333,34.042969
217.066666,430.666656,117.600006,34.046875
219.333328,433.866638,122.933334,34.046875
226.133331,437.06665,118.133331,34.054688
215.466675,430.533325,119.466667,34.058594
225.599991,436.399994,117.866669,34.0625
218.0,431.600006,119.599998,34.070312
218.666672,436.933319,117.600006,34.074219
218.666672,430.533325,119.599998,34.078125
221.866669,436.933319,117.866669,34.078125
219.733337,432.266663,121.066666,34.082031
213.866669,436.666687,116.26667,34.089844
227.866669,432.266663,117.200005,34.09375
217.866669,436.533325,116.0,34.09375
225.866669,433.200012,118.666672,34.097656
216.800003,436.933319,119.466667,34.101562
226.53334,432.133331,118.666672,34.105469
213.866669,436.266663,115.866669,34.105469
226.399994,431.733337,118.533333,34.113281
222.399994,436.666687,121.73333,34.121094
219.733337,431.199982,115.866669,34.125
216.800003,436.533325,121.333328,34.125
227.066666,432.266663,116.400002,34.125
222.266678,433.466675,121.466667,34.136719
221.466675,433.866638,114.399994,34.144531
221.466675,434.266663,121.599998,34.148438
228.399994,434.0,116.133339,34.148438
224.400009,432.93335,119.466667,34.152344
216.800003,434.666687,114.266663,34.15625
222.933334,432.533325,122.0,34.160156
222.800003,437.866669,114.266663,34.160156
226.666656,432.0,122.666664,34.160156
215.200012,436.799988,116.400002,34.164062
224.666672,432.533325,123.199997,34.167969
213.46666,434.133331,114.533325,34.175781
221.600006,430.400024,121.73333,34.179688
219.199997,437.733337,114.0,34.183594
227.333344,431.866699,120.800003,34.1875
215.733337,436.533325,111.199997,34.191406
215.866669,429.333344,118.533333,34.203125
225.866669,440.800018,119.199997,34.207031
217.46666,429.866669,120.266663,34.210938
222.933334,438.93335,117.600006,34.210938
214.133331,428.533325,116.400002,34.21875
227.066666,440.93335,123.866661,34.226562
215.466675,430.0,117.200005,34.230469
224.133331,439.466675,121.199997,34.234375
216.133331,431.199982,115.466675,34.238281
229.733337,438.399994,124.799995,34.238281
215.333328,431.06665,114.533325,34.242188
225.466675,437.200012,122.266663,34.246094
217.866669,434.133331,114.666664,34.253906
227.333344,434.266663,124.933327,34.261719
214.400009,433.466675,113.73333,34.265625
226.399994,434.133331,122.933334,34.265625
220.133347,437.733337,115.866669,34.265625
223.199997,432.133331,123.066666,34.269531
214.666672,435.600006,114.533325,34.273438
230.266663,432.266663,120.933334,34.273438
225.866669,442.0,120.933334,34.28125
220.133347,433.866638,120.800003,34.285156
219.733337,439.199982,118.666672,34.285156
225.466675,431.733337,114.933327,34.289062
226.0,438.93335,123.866661,34.292969
218.0,430.533325,115.333336,34.296875
222.53334,439.733307,121.333328,34.300781
222.800003,431.199982,115.066673,34.304688
229.866653,438.0,125.200005,34.308594
215.333328,430.800018,111.599998,34.316406
225.466675,436.799988,125.333336,34.316406
219.199997,433.866638,112.533333,34.320312
229.599991,433.200012,124.266663,34.328125
212.800003,435.600006,114.399994,34.332031
228.0,434.933319,126.26667,34.335938
213.333344,433.466675,112.799995,34.335938
220.266663,430.666656,122.266663,34.34375
218.133331,436.666687,114.533325,34.347656
225.066666,432.533325,123.46666,34.351562
215.333328,434.666687,108.933334,34.355469
216.666656,428.266663,120.800003,34.367188
220.533325,438.133301,118.533333,34.371094
225.066666,426.666687,123.066666,34.375
215.066666,440.133331,114.0,34.375
214.666672,427.06665,114.533325,34.386719
225.866669,440.133331,120.533333,34.386719
217.066666,426.133362,118.0,34.390625
220.93335,438.93335,119.733337,34.390625
215.333328,428.800018,112.533333,34.398438
225.333328,439.866669,123.066666,34.402344
213.46666,427.06665,113.599998,34.40625
226.399994,440.800018,122.399994,34.410156
222.0,432.400024,112.666664,34.414062
222.666656,436.399994,124.933327,34.417969
216.0,429.733307,112.266663,34.425781
228.399994,437.599976,128.933334,34.441406
223.866669,435.733337,112.133331,34.441406
216.666656,433.733337,125.333336,34.441406
225.066666,432.799988,113.066666,34.445312
218.666672,434.799988,124.933327,34.445312
224.400009,438.399994,114.133331,34.449219
217.333344,428.666656,126.0,34.457031
225.466675,437.06665,112.0,34.46875
217.066666,431.199982,123.46666,34.46875
220.266663,438.399994,114.533325,34.476562
218.799988,427.200012,125.066673,34.480469
224.933334,440.0,115.466675,34.484375
216.933319,427.200012,123.46666,34.484375
222.266678,439.466675,120.800003,34.488281
215.466675,426.266663,115.466675,34.492188
226.800003,440.266693,121.599998,34.5
216.399994,426.399994,115.866669,34.515625
223.199997,428.800018,123.333328,34.519531
219.06665,437.733337,112.666664,34.523438
219.599991,428.133301,124.399994,34.527344
224.400009,439.333344,114.266663,34.53125
225.333328,428.266663,119.199997,34.542969
219.866653,438.800018,118.933334,34.546875
218.533325,426.266663,118.533333,34.546875
225.066666,440.533325,121.199997,34.546875
221.200012,431.199982,111.73333,34.554688
225.200012,437.06665,125.200005,34.554688
214.666672,429.199982,110.800003,34.558594
228.799988,437.866669,127.066666,34.558594
220.533325,436.799988,111.199997,34.570312
223.199997,431.600006,128.399994,34.585938
214.933334,434.799988,111.066666,34.589844
227.866669,432.666656,128.0,34.589844
222.933334,440.0,115.733337,34.59375
222.53334,427.06665,123.599998,34.59375
216.666656,437.733337,114.533325,34.597656
226.933319,428.533325,123.333328,34.597656
224.400009,438.93335,122.799995,34.601562
221.066666,428.133301,114.799995,34.609375
218.533325,436.933319,121.599998,34.613281
225.599991,428.666656,115.466675,34.617188
228.133331,438.0,126.53334,34.617188
213.866669,428.399994,111.466667,34.621094
224.266663,438.266663,125.333336,34.621094
219.333328,428.666656,111.73333,34.625
228.0,435.333313,128.133331,34.636719
213.066681,432.666656,109.199997,34.644531
227.733322,434.799988,127.866669,34.652344
224.266663,439.866669,113.866661,34.652344
220.800003,426.799988,116.0,34.671875
223.866669,439.199982,120.533333,34.675781
216.53334,424.0,116.53334,34.675781
223.333344,440.400024,117.333336,34.675781
223.733337,430.400024,112.533333,34.683594
220.666672,436.799988,124.0,34.6875
217.733322,428.266663,111.066666,34.6875
227.46666,439.06665,124.533325,34.6875
223.066681,436.133362,110.666664,34.691406
220.0,433.200012,128.399994,34.699219
222.266678,432.799988,110.666664,34.703125
217.600006,436.533325,124.266663,34.710938
223.066681,437.200012,111.466667,34.71875
217.333344,430.133331,126.933334,34.722656
223.333344,437.06665,113.599998,34.734375
219.733337,431.600006,128.266663,34.734375
223.199997,439.866669,115.066673,34.738281
216.666656,425.466644,124.266663,34.738281
223.733337,439.866669,115.066673,34.742188
219.199997,426.266663,122.133331,34.75
225.599991,439.599976,122.533333,34.757812
213.733337,426.266663,112.666664,34.761719
225.733337,439.06665,122.799995,34.765625
219.866653,427.333344,114.533325,34.765625
228.533325,436.0,128.0,34.765625
212.0,432.666656,109.733337,34.773438
226.933319,434.666687,127.200005,34.777344
214.133331,430.666656,110.266663,34.78125
227.733322,430.533325,127.200005,34.785156
212.933334,436.0,113.333328,34.789062
229.599991,432.400024,128.933334,34.789062
213.866669,435.200012,110.0,34.792969
224.666672,427.333344,122.0,34.800781
215.466675,436.666687,114.533325,34.804688
226.933319,428.399994,123.46666,34.804688
215.066666,437.06665,113.599998,34.808594
219.06665,426.266663,116.0,34.816406
218.533325,437.06665,117.733337,34.820312
226.0,428.266663,117.600006,34.824219
216.399994,436.399994,118.933334,34.835938
218.933334,432.400024,110.133331,34.847656
222.399994,437.06665,124.799995,34.851562
222.0,431.199982,111.199997,34.859375
217.600006,436.666687,121.333328,34.855469
213.066681,431.06665,108.800003,34.859375
227.333344,436.0,128.133331,34.863281
216.53334,432.799988,106.53334,34.871094
221.466675,433.866638,127.200005,34.875
212.53334,436.666687,111.199997,34.878906
226.666656,429.466675,126.400002,34.882812
218.266663,437.733337,112.666664,34.882812
223.733337,430.400024,126.800003,34.886719
213.733337,436.666687,115.200005,34.898438
227.199997,427.466675,120.133331,34.898438
216.666656,437.599976,117.600006,34.902344
221.200012,426.399994,122.266663,34.90625
216.399994,435.600006,122.0,34.914062
226.933319,430.800018,112.533333,34.917969
214.400009,436.933319,119.599998,34.921875
223.866669,429.06665,115.066673,34.921875
223.333344,428.0,123.866661,34.929688
218.666672,438.133301,111.466667,34.929688
225.466675,430.133331,126.0,34.933594
215.066666,435.733337,111.066666,34.941406
216.933319,425.600006,119.599998,34.941406
223.333344,439.333344,115.066673,34.945312
222.399994,427.200012,120.933334,34.949219
216.0,437.333344,116.133339,34.949219
214.533325,427.200012,111.866669,34.960938
224.533325,438.133301,122.533333,34.964844
221.200012,428.93335,110.133331,34.96875
218.133331,436.533325,121.466667,34.972656
213.199997,433.866638,108.666672,34.976562
227.333344,436.0,128.399994,34.980469
215.866669,432.93335,108.666672,34.984375
223.600006,437.333344,124.799995,34.984375
213.46666,435.333313,109.199997,34.988281
214.266663,425.866669,113.199997,34.992188
224.933334,438.533325,119.466667,35.003906
221.466675,427.333344,114.399994,35.011719
226.399994,438.0,126.133339,35.019531
215.733337,428.93335,109.733337,35.019531
227.333344,438.93335,123.73333,35.019531
214.533325,426.933319,111.866669,35.023438
220.533325,433.600006,126.400002,35.035156
217.199997,432.666656,108.666672,35.035156
222.666656,435.600006,123.46666,35.039062
217.199997,429.199982,110.400002,35.039062
217.333344,430.133331,125.600006,35.042969
222.0,437.599976,110.266663,35.050781
223.066681,431.466675,125.600006,35.054688
221.066666,435.066681,109.466667,35.058594
218.666672,428.133301,124.533325,35.066406
222.800003,438.93335,110.800003,35.070312
217.066666,428.399994,125.200005,35.070312
222.399994,438.133301,110.133331,35.070312
216.399994,426.133362,117.200005,35.078125
224.666672,440.133331,117.200005,35.082031
214.666672,425.466644,118.26667,35.085938
222.53334,439.199982,116.933334,35.089844
215.733337,428.800018,110.666664,35.09375
230.266663,437.733337,124.399994,35.101562
213.46666,426.933319,110.800003,35.105469
224.266663,437.733337,120.133331,35.109375
220.666672,432.799988,109.333336,35.113281
222.800003,436.133362,126.133339,35.121094
220.266663,431.199982,110.533333,35.125
225.599991,436.933319,124.933327,35.128906
221.866669,437.599976,109.866669,35.132812
219.733337,431.600006,127.200005,35.136719
220.800003,434.533356,107.200005,35.136719
223.600006,434.133331,126.26667,35.144531
221.200012,441.733337,112.0,35.15625
217.066666,428.399994,124.933327,35.15625
223.46666,437.866669,111.066666,35.15625
220.266663,430.0,126.133339,35.160156
226.666656,440.0,117.200005,35.164062
215.733337,426.399994,119.866669,35.171875
220.133347,433.866638,123.599998,35.171875
222.266678,432.93335,110.800003,35.179688
217.866669,428.800018,125.466675,35.195312
223.600006,438.0,111.599998,35.210938
216.133331,424.133331,127.466667,35.214844
221.333328,438.399994,110.400002,35.210938
218.0,426.399994,121.333328,35.210938
224.666672,439.733307,114.266663,35.210938
219.599991,428.533325,125.333336,35.210938
223.333344,437.466675,116.26667,35.21875
224.400009,428.266663,115.600006,35.21875
216.133331,439.866669,122.266663,35.222656
217.46666,426.666687,118.933334,35.230469
224.799988,439.06665,118.26667,35.234375
219.599991,430.666656,110.0,35.234375
224.0,436.399994,125.733337,35.238281
213.199997,430.800018,110.933334,35.242188
227.066666,437.200012,125.066673,35.246094
220.0,436.133362,109.466667,35.257812
220.800003,432.133331,130.399994,35.265625
218.533325,433.600006,107.200005,35.269531
225.200012,435.066681,126.666672,35.273438
222.53334,438.666656,112.533333,35.289062
221.466675,429.333344,124.266663,35.289062
220.133347,437.466675,112.266663,35.292969
216.666656,435.066681,125.600006,35.292969
224.0,438.800018,114.933327,35.289062
217.600006,428.399994,118.533333,35.296875
218.933334,436.933319,116.800003,35.296875
226.933319,429.466675,117.866669,35.300781
221.333328,433.066681,124.533325,35.308594
216.53334,434.533356,111.199997,35.3125
216.0,430.93335,122.799995,35.316406
223.199997,435.200012,109.733337,35.320312
219.599991,428.93335,123.199997,35.324219
222.53334,435.866669,110.266663,35.335938
218.0,430.0,126.26667,35.34375
223.199997,437.733337,113.199997,35.34375
225.466675,429.06665,118.800003,35.347656
218.799988,437.333344,117.466667,35.351562
